C,FFGRL,FFQRH,RSSLOPE,RSXA,RPSTP, QTP,FFQRSD,RRR,RRPOST,FFRR2NDUR,TMA1mean,FMA2std,FMA2mean
1,86.111,24,145,93,0.97372,1.7268,2.3421,1.6165,-104.1,52.048,0.01325,0.23847,0.22172
1,86.111,25,147,94,1.0613,1.898,2.4737,1.8602,-109.94,54.971,0.01325,0.23847,0.22172
1,80.556,23,145,93,1.0312,1.8801,2.3497,1.7526,-97.906,48.953,0.027429,0.20224,0.18803
1,83.333,24,143,91,0.93523,1.6723,2.2255,1.4149,-98.909,49.455,0.016185,0.21673,0.21023
1,88.889,25,146,93,1.0961,2.0094,2.465,1.8548,-109.55,54.777,0.018421,0.22375,0.21462
1,88.889,24,142,89,1.0513,1.8077,2.5474,1.6504,-106.14,53.07,0.022885,0.21302,0.20139
1,86.111,24,145,93,0.97827,1.734,2.3544,1.5855,-104.64,52.32,0.017894,0.23104,0.22212
1,83.333,24,146,94,0.90581,1.6393,2.1188,1.4038,-94.167,47.084,0.019714,0.21222,0.20207
1,83.333,23,142,90,0.99082,1.7549,2.3577,1.6492,-98.239,49.12,0.015889,0.21254,0.20469
1,83.333,23,142,91,0.92652,1.6376,2.2933,1.4974,-101.92,50.961,0.019975,0.21979,0.20998
1,86.111,24,143,90,1.0967,1.9538,2.5395,1.7808,-105.81,52.906,0.018628,0.22978,0.22034
1,83.333,23,145,93,0.88402,1.552,2.1378,1.3339,-89.076,44.538,0.023611,0.20848,0.19607
1,88.889,24,143,91,0.93876,1.64,2.3106,1.5028,-102.69,51.347,0.022361,0.21211,0.20077
1,86.111,25,147,94,1.1547,2.0723,2.6696,1.9351,-118.65,59.324,0.020512,0.23136,0.22097
1,86.111,24,146,94,0.93462,1.6643,2.2378,1.4997,-99.458,49.729,0.017128,0.22463,0.21586
1,86.111,24,146,94,0.94466,1.6736,2.2781,1.5348,-101.25,50.624,0.018144,0.21349,0.20436
1,86.111,24,146,94,1.0049,1.796,2.3863,1.6453,-106.06,53.029,0.02497,0.21948,0.20681
1,86.111,24,144,92,0.98563,1.7644,2.3368,1.5919,-103.86,51.928,0.014378,0.23539,0.2282
1,86.111,25,147,94,1.0497,1.9182,2.3753,1.7036,-105.57,52.784,0.017153,0.22449,0.2157
1,91.667,25,145,92,1.0667,1.8962,2.5062,1.7387,-111.39,55.693,0.020774,0.21779,0.20711
1,86.111,24,143,91,0.97449,1.7587,2.2832,1.5677,-101.48,50.738,0.017254,0.2297,0.22101
1,144.44,45,169,92,0.99792,1.6288,2.1933,1.4651,-97.481,48.74,0.015955,0.21795,0.20998
1,83.333,23,145,93,1.0447,1.8427,2.4948,1.7303,-103.95,51.975,0.022352,0.22072,0.20963
1,86.111,24,146,93,1.0231,1.8024,2.4095,1.6141,-100.4,50.198,0.016953,0.23302,0.22456
1,80.556,23,145,93,1.0874,2.0109,2.419,1.7985,-100.79,50.395,0.015299,0.22664,0.2189
1,86.111,24,146,94,0.99062,1.8024,2.2904,1.616,-101.8,50.899,0.018199,0.21011,0.20055
1,83.333,23,144,93,0.94127,1.6642,2.3269,1.5603,-103.42,51.71,0.022894,0.22196,0.21069
1,88.889,24,145,93,0.98029,1.7359,2.3623,1.5726,-104.99,52.496,0.023531,0.21639,0.20408
1,83.333,24,143,91,1.0704,1.9517,2.4584,1.7972,-109.26,54.632,0.014969,0.23156,0.22397
1,86.111,23,145,93,0.92878,1.6246,2.2537,1.4223,-93.904,46.952,0.02265,0.20288,0.19092
1,88.889,24,145,92,1.1286,1.998,2.6315,1.9042,-109.64,54.822,0.018273,0.23383,0.22493
1,86.111,24,146,94,0.95133,1.7023,2.2599,1.5123,-100.44,50.221,0.020146,0.22061,0.21037
1,83.333,23,145,93,0.91913,1.6628,2.1279,1.5021,-88.663,44.332,0.017512,0.20187,0.19301
1,119.44,37,154,95,0.96037,1.606,2.1801,1.514,-102.95,51.474,0.012148,0.21232,0.20621
1,88.889,25,144,91,0.96164,1.7116,2.2637,1.6079,-100.61,50.304,0.017749,0.21626,0.20734
1,83.333,24,146,94,0.88104,1.5649,2.1217,1.4039,-94.297,47.148,0.018595,0.21892,0.20956
1,86.111,24,142,90,0.84941,1.49,2.0851,1.3873,-92.672,46.336,0.014279,0.22192,0.21494
1,83.333,22,144,93,0.91545,1.5968,2.2821,1.4843,-95.086,47.543,0.019391,0.21467,0.20508
1,83.333,23,142,90,1.0527,1.8764,2.4762,1.7316,-103.18,51.588,0.0181,0.22541,0.21626
1,144.44,44,164,88,1.0802,1.7613,2.3602,1.6209,-98.341,49.17,0.017517,0.21434,0.20557
1,88.889,25,143,90,1.0374,1.8359,2.4547,1.7081,-109.1,54.549,0.020305,0.22429,0.2141
1,83.333,23,143,91,1.0344,1.8446,2.4336,1.674,-101.4,50.7,0.017578,0.22252,0.21377
1,86.111,25,147,94,1.0499,1.9177,2.3774,1.7412,-105.66,52.83,0.014762,0.2289,0.22153
1,86.111,25,147,95,0.96843,1.7741,2.2377,1.5942,-105.67,52.835,0.013551,0.23481,0.2279
1,88.889,24,142,90,0.93469,1.6306,2.3054,1.5251,-102.46,51.232,0.02034,0.21799,0.20775
1,88.889,24,144,92,0.91351,1.5824,2.2776,1.4684,-101.23,50.613,0.022449,0.21747,0.20613
1,86.111,25,140,87,1.0914,1.9815,2.4885,1.818,-110.6,55.301,0.018028,0.23589,0.22669
1,83.333,23,145,93,0.94251,1.7164,2.159,1.4763,-89.96,44.98,0.026554,0.19773,0.18383
1,88.889,25,143,91,1.0298,1.8441,2.463,1.7458,-116.31,58.155,0.019838,0.21649,0.20643
1,88.889,25,145,92,0.93085,1.6284,2.2439,1.4891,-99.727,49.864,0.018916,0.21719,0.2075
1,86.111,24,144,91,1.1283,2.0423,2.5564,1.85,-106.52,53.258,0.019238,0.23843,0.22881
1,86.111,24,146,94,0.8389,1.4638,2.0757,1.2638,-92.252,46.126,0.025682,0.19732,0.18367
1,88.889,24,146,94,0.96103,1.6974,2.3266,1.5977,-103.4,51.702,0.021881,0.22408,0.21312
1,83.333,23,144,91,0.98834,1.7424,2.3017,1.5461,-89.511,44.756,0.021327,0.20901,0.19824
1,86.111,24,146,93,0.96586,1.7409,2.2131,1.5986,-92.214,46.107,0.020296,0.21041,0.20054
1,88.889,24,144,91,1.0407,1.8337,2.4489,1.6915,-102.04,51.018,0.023178,0.20767,0.196
1,83.333,23,142,90,0.94152,1.6812,2.2192,1.5317,-92.466,46.233,0.017577,0.21413,0.20551
1,88.889,25,144,91,1.0752,1.95,2.4573,1.7689,-109.21,54.606,0.017779,0.23376,0.22474
1,91.667,25,144,91,0.9821,1.7191,2.3617,1.6069,-104.96,52.482,0.017618,0.2172,0.20846
1,86.111,24,143,91,1.0057,1.7864,2.4105,1.6463,-107.13,53.567,0.018437,0.2243,0.21493
1,86.111,24,146,94,0.96709,1.7467,2.2637,1.5748,-100.61,50.304,0.019258,0.20949,0.19967
1,86.111,24,146,93,0.94419,1.687,2.1897,1.4809,-91.236,45.618,0.018004,0.20842,0.19929
1,86.111,24,146,94,0.98433,1.7617,2.3346,1.6451,-103.76,51.88,0.020277,0.21197,0.20195
1,88.889,25,144,92,0.93359,1.6837,2.2161,1.5122,-104.65,52.324,0.016845,0.21907,0.21049
1,88.889,25,145,92,0.95376,1.6965,2.2475,1.5182,-99.891,49.945,0.018318,0.21348,0.20423
1,88.889,25,144,92,0.93173,1.6697,2.2344,1.5164,-105.52,52.758,0.016773,0.2073,0.19862
1,86.111,24,146,94,0.93748,1.6424,2.2984,1.5341,-102.15,51.075,0.021956,0.21625,0.20535
1,86.111,24,145,93,0.99258,1.7815,2.3435,1.6188,-104.15,52.077,0.020357,0.22356,0.21311
1,83.333,23,145,93,0.9462,1.6939,2.2218,1.5355,-92.575,46.287,0.021243,0.2141,0.20354
1,83.333,23,145,92,0.98949,1.7499,2.2959,1.5567,-89.284,44.642,0.022111,0.20159,0.19037
1,91.667,25,145,92,1.0391,1.8203,2.4916,1.7167,-110.74,55.368,0.023193,0.21292,0.20109
1,83.333,24,146,94,1.0798,1.9485,2.5193,1.7972,-111.97,55.984,0.019252,0.22414,0.21461
1,88.889,25,145,92,0.99436,1.777,2.3254,1.6089,-103.35,51.675,0.0182,0.22279,0.21355
1,86.111,24,138,86,0.98887,1.7943,2.2962,1.5954,-102.05,51.027,0.019358,0.21565,0.2059
1,88.889,25,144,91,1.0689,1.9031,2.5063,1.786,-111.39,55.695,0.020925,0.21874,0.20825
1,83.333,24,144,92,1.0246,1.8369,2.4198,1.687,-107.55,53.774,0.017526,0.22548,0.21674
1,88.889,25,142,89,1.0442,1.8734,2.4251,1.6635,-107.78,53.892,0.016925,0.22738,0.21869
1,80.556,23,145,93,1.0442,1.9026,2.3799,1.6776,-99.163,49.581,0.025519,0.21004,0.1967
1,91.667,25,142,88,1.0701,1.8697,2.5055,1.7642,-104.4,52.198,0.020102,0.21674,0.2068
1,88.889,25,146,93,1.1544,2.1058,2.6086,1.8798,-115.94,57.969,0.018846,0.22876,0.2192
1,86.111,24,146,94,0.96729,1.7614,2.2357,1.5354,-99.365,49.683,0.016799,0.22121,0.21255
1,83.333,24,146,94,1.039,1.9153,2.3479,1.6791,-104.35,52.176,0.021125,0.22097,0.21012
1,88.889,24,146,94,1.049,1.8688,2.4983,1.7338,-111.04,55.519,0.020797,0.21927,0.20869
1,80.556,22,141,90,0.96447,1.7074,2.3452,1.5588,-97.716,48.858,0.021976,0.2231,0.21232
1,86.111,24,146,94,0.91141,1.6425,2.1453,1.4246,-95.345,47.672,0.021396,0.21047,0.19927
1,88.889,24,144,91,0.99447,1.7458,2.3543,1.5745,-98.094,49.047,0.022964,0.20833,0.19637
1,80.556,22,139,88,0.95069,1.7164,2.2421,1.4863,-93.42,46.71,0.022242,0.2179,0.2068
1,86.111,24,146,94,1.0323,1.8738,2.3914,1.6611,-106.28,53.142,0.020851,0.21962,0.20893
1,86.111,24,146,93,0.93567,1.6257,2.2475,1.4462,-93.644,46.822,0.021123,0.20347,0.19277
1,86.111,24,146,93,1.0835,1.9178,2.5314,1.7838,-105.47,52.737,0.023665,0.21456,0.20252
1,86.111,24,146,93,1.0257,1.8289,2.3787,1.6294,-99.113,49.557,0.022406,0.20946,0.19808
1,88.889,24,143,91,0.9043,1.5994,2.1894,1.4368,-97.306,48.653,0.018693,0.20972,0.20034
1,83.333,23,142,91,0.83093,1.4875,2.0225,1.3063,-89.891,44.945,0.016991,0.20868,0.20007
1,136.11,42,168,93,0.98706,1.6348,2.1771,1.4727,-96.759,48.379,0.018165,0.20684,0.19774
1,91.667,26,144,91,0.9687,1.7201,2.3113,1.5941,-109.14,54.572,0.02321,0.21497,0.20313
1,88.889,25,147,94,1.0794,1.9473,2.4844,1.7377,-110.42,55.21,0.017771,0.22963,0.22064
1,83.333,23,145,93,1.0372,1.895,2.3551,1.6702,-98.13,49.065,0.022126,0.21701,0.20573
1,91.667,26,148,94,1.041,1.9015,2.3335,1.6656,-103.71,51.857,0.019203,0.21134,0.20122
1,83.333,23,145,94,0.80716,1.4183,2.0273,1.3309,-90.101,45.05,0.019773,0.2013,0.19164
1,86.111,24,142,90,0.96017,1.7238,2.269,1.5703,-100.84,50.421,0.019092,0.21616,0.2065
1,86.111,24,146,93,1.0546,1.9203,2.3767,1.6934,-99.031,49.515,0.025088,0.20578,0.19271
1,83.333,23,145,93,0.97403,1.7265,2.3167,1.5779,-96.529,48.264,0.024331,0.20738,0.19506
1,86.111,24,146,93,1.0037,1.7965,2.3181,1.6325,-96.586,48.293,0.019002,0.2159,0.20636
1,86.111,24,146,94,0.87694,1.5811,2.0653,1.3944,-91.793,45.897,0.022078,0.203,0.19169
1,83.333,24,145,92,0.95626,1.7223,2.194,1.5258,-91.415,45.708,0.015869,0.21964,0.21172
1,86.111,23,145,93,0.9268,1.6527,2.19,1.459,-91.249,45.625,0.022634,0.19435,0.18262
1,88.889,25,145,92,1.0952,1.9706,2.5288,1.8878,-112.39,56.196,0.022782,0.21596,0.20458
1,83.333,23,142,90,0.97849,1.7687,2.2628,1.5744,-94.282,47.141,0.017109,0.21939,0.2109
1,86.111,24,144,92,0.93932,1.7132,2.1681,1.5149,-96.359,48.18,0.020448,0.21211,0.20174
1,86.111,25,145,93,0.9307,1.7056,2.1524,1.4857,-101.64,50.821,0.014711,0.22481,0.21729
1,91.667,25,145,92,0.99819,1.748,2.3979,1.6348,-106.57,53.286,0.023969,0.21119,0.19887
0,86.111,21,142,92,1.1966,2.1543,2.8467,1.6855,-118.61,59.306,0.062714,0.21771,0.18095
1,86.111,25,145,92,0.96829,1.7394,2.2504,1.5719,-100.02,50.009,0.018588,0.22083,0.21125
1,77.778,22,144,93,0.82871,1.485,1.9894,1.2556,-82.89,41.445,0.024002,0.20454,0.19212
1,91.667,26,148,94,0.88915,1.5521,2.1168,1.3993,-94.081,47.04,0.019605,0.20464,0.19455
1,88.889,24,144,92,0.95958,1.6939,2.325,1.5925,-103.33,51.667,0.019335,0.21806,0.20848
0,138.89,43,198,123,1.0832,1.7918,2.3812,1.7795,-105.83,52.915,0.017687,0.2186,0.20287
1,86.111,25,147,94,1.0244,1.877,2.3111,1.8001,-102.72,51.358,0.027115,0.19317,0.17862
1,86.111,25,147,94,1.0213,1.8799,2.2894,1.625,-101.75,50.875,0.018575,0.22943,0.21989
1,108.33,31,151,91,0.8673,1.4671,2.0098,1.32,-89.323,44.661,0.018393,0.19975,0.19034
1,86.111,24,146,94,0.95906,1.6968,2.3161,1.5943,-102.94,51.469,0.026181,0.20831,0.19498
1,86.111,24,146,93,1.051,1.8636,2.4525,1.6478,-102.19,51.093,0.022539,0.21178,0.20003
1,83.333,24,146,94,0.95826,1.7559,2.1939,1.5093,-97.506,48.753,0.023603,0.19914,0.18663
1,86.111,24,146,94,0.98169,1.7412,2.3601,1.6284,-104.89,52.447,0.023646,0.21574,0.20401
1,88.889,25,145,92,1.0779,1.9219,2.5215,1.7139,-112.07,56.033,0.021436,0.21397,0.20277
1,86.111,24,145,92,1.0288,1.8395,2.3772,1.6685,-99.051,49.526,0.019288,0.21562,0.20591
1,86.111,23,145,93,0.89429,1.5892,2.126,1.3878,-88.585,44.292,0.02145,0.19865,0.18752
1,88.889,24,146,94,0.91981,1.6056,2.2681,1.5031,-100.81,50.403,0.020923,0.21543,0.20489
1,83.333,23,142,90,1.0428,1.8732,2.4271,1.6504,-101.13,50.565,0.018043,0.21849,0.20952
1,88.889,25,144,91,1.046,1.9311,2.3325,1.7202,-103.67,51.834,0.015319,0.22478,0.21693
1,83.333,23,145,93,1.0271,1.8771,2.3325,1.6335,-97.189,48.595,0.021947,0.19939,0.18954
1,91.667,25,146,93,0.95565,1.664,2.3157,1.5519,-102.92,51.459,0.019337,0.21486,0.20509
1,86.111,25,144,91,1.0537,1.8814,2.4621,1.7378,-109.43,54.714,0.01552,0.22564,0.2178
1,86.111,25,144,91,1.0848,1.9976,2.4244,1.8135,-107.75,53.876,0.01219,0.22582,0.21957
1,86.111,25,143,90,1.0461,1.9447,2.3088,1.7229,-102.61,51.307,0.01417,0.21428,0.20707
1,88.889,24,146,93,0.91813,1.6557,2.1056,1.4173,-87.735,43.867,0.017707,0.19863,0.1893
1,86.111,24,144,92,0.9313,1.6406,2.2657,1.513,-100.7,50.35,0.021021,0.21683,0.2064
1,83.333,23,143,91,1.0032,1.7762,2.3869,1.6495,-99.454,49.727,0.016152,0.21801,0.20982
1,80.556,23,142,90,0.93943,1.7024,2.1679,1.4804,-90.33,45.165,0.01982,0.20787,0.19773
1,86.111,24,143,90,0.93654,1.6379,2.2317,1.4673,-92.988,46.494,0.019246,0.20765,0.19786
1,86.111,24,146,94,0.99977,1.7724,2.4035,1.6733,-106.82,53.412,0.021576,0.22502,0.21424
1,86.111,23,143,91,1.0496,1.8774,2.4573,1.7014,-102.39,51.193,0.020324,0.21832,0.20794
1,83.333,24,143,90,1.1397,2.09,2.5357,1.8455,-105.65,52.827,0.022509,0.22475,0.21323
1,86.111,23,145,93,1.0166,1.7863,2.4432,1.6468,-101.8,50.901,0.023475,0.21409,0.20241
1,86.111,24,145,93,1.0446,1.8679,2.4745,1.7561,-109.98,54.989,0.017971,0.23883,0.23017
1,83.333,24,146,93,1.1373,2.0916,2.5211,1.8825,-105.05,52.523,0.018728,0.2317,0.2224
1,88.889,25,147,94,0.94148,1.7091,2.1584,1.4936,-95.927,47.964,0.019201,0.20968,0.19967
1,86.111,24,146,93,1.096,1.9631,2.5204,1.8644,-105.02,52.509,0.019621,0.22108,0.21169
1,88.889,25,146,93,0.96924,1.7341,2.2651,1.5489,-100.67,50.335,0.019603,0.22243,0.21239
1,83.333,24,144,92,0.99416,1.8337,2.2489,1.641,-99.952,49.976,0.017109,0.23285,0.22432
1,86.111,23,141,90,0.86728,1.5324,2.1535,1.3842,-95.709,47.855,0.023556,0.21034,0.19816
1,86.111,24,144,92,0.96014,1.7231,2.2701,1.6353,-100.89,50.447,0.023548,0.2187,0.20693
1,86.111,24,145,92,1.1104,2.0297,2.4842,1.8467,-103.51,51.755,0.018454,0.22571,0.21649
1,86.111,24,140,87,1.1455,2.1234,2.5104,1.9379,-104.6,52.301,0.023574,0.22377,0.21215
1,86.111,24,142,90,0.99169,1.7816,2.3381,1.7029,-103.91,51.957,0.023257,0.21438,0.20271
1,88.889,25,146,93,1.0422,1.888,2.3881,1.7594,-106.14,53.07,0.023879,0.22374,0.21163
1,83.333,23,142,90,1.0401,1.9051,2.3528,1.7121,-98.034,49.017,0.019112,0.22335,0.21373
1,83.333,23,145,94,0.82831,1.462,2.0638,1.3296,-91.724,45.862,0.022844,0.20504,0.19357
1,86.111,24,144,92,1.0116,1.8059,2.4059,1.7434,-106.93,53.464,0.020984,0.22261,0.21228
1,83.333,24,144,92,1.1111,2.0509,2.4978,1.9122,-111.01,55.507,0.02199,0.23988,0.22911
1,86.111,23,145,93,0.96262,1.7571,2.1958,1.562,-91.491,45.745,0.022373,0.20658,0.19529
1,91.667,25,145,92,0.97645,1.7234,2.3233,1.6167,-103.26,51.63,0.02653,0.21334,0.19967
1,83.333,23,141,89,1.0461,1.8797,2.4336,1.706,-101.4,50.7,0.025281,0.21423,0.20151
1,88.889,26,145,92,1.0142,1.8843,2.2596,1.6937,-106.7,53.352,0.015515,0.23123,0.22357
1,108.33,32,149,89,1.0047,1.7475,2.2567,1.6335,-100.3,50.149,0.014039,0.21117,0.20421
1,88.889,25,147,94,1.0515,1.8887,2.4374,1.8168,-108.33,54.165,0.014978,0.21903,0.21156
1,83.333,24,142,90,0.94986,1.7319,2.1924,1.5457,-97.439,48.719,0.017797,0.22253,0.21372
1,100,28,154,93,0.90276,1.5374,2.0997,1.3955,-87.489,43.745,0.017478,0.20577,0.19689
1,86.111,24,140,88,0.96437,1.7123,2.3164,1.6305,-102.95,51.476,0.016662,0.21915,0.21109
1,86.111,24,143,90,1.0578,1.905,2.4187,1.7598,-100.78,50.389,0.017236,0.2227,0.21419
1,86.111,25,144,91,0.94892,1.7177,2.1836,1.522,-97.049,48.525,0.015565,0.21762,0.20976
1,91.667,26,148,95,0.88701,1.5737,2.1242,1.4071,-100.31,50.154,0.016116,0.21274,0.20454
1,86.111,24,145,92,1.0186,1.797,2.3947,1.6779,-99.777,49.889,0.019641,0.20949,0.19987
1,83.333,24,146,94,0.97928,1.7947,2.2396,1.5866,-99.538,49.769,0.017162,0.22664,0.21792
1,77.778,20,137,87,0.95539,1.6745,2.3852,1.4554,-92.759,46.379,0.038659,0.20342,0.18413
1,86.111,24,144,92,0.95363,1.6881,2.3018,1.573,-102.3,51.15,0.02472,0.20975,0.19711
1,88.889,25,146,93,0.98255,1.7757,2.2637,1.5884,-100.61,50.304,0.015763,0.22237,0.21431
1,83.333,23,145,94,0.77847,1.3756,1.94,1.2174,-86.223,43.111,0.021095,0.19534,0.18458
1,88.889,25,144,92,0.93383,1.6682,2.2503,1.5769,-106.27,53.133,0.018607,0.21292,0.2035
1,86.111,25,147,94,1.056,1.9253,2.3967,1.7097,-106.52,53.26,0.016671,0.22178,0.2133
1,88.889,25,145,92,1.041,1.9146,2.3349,1.6963,-103.77,51.886,0.019894,0.21864,0.20849
1,83.333,24,146,94,0.8733,1.5406,2.1247,1.3922,-94.429,47.215,0.022299,0.21045,0.19929
1,86.111,23,143,91,0.96628,1.6986,2.3255,1.5383,-96.895,48.448,0.020196,0.21288,0.20248
1,83.333,23,145,93,0.92918,1.6975,2.1197,1.4782,-88.319,44.16,0.023617,0.19575,0.18347
1,88.889,24,144,92,0.99598,1.7698,2.3864,1.6464,-106.06,53.032,0.021723,0.22459,0.21368
1,88.889,25,146,93,1.1195,2.0142,2.5826,1.8856,-114.78,57.391,0.020749,0.23354,0.2231
1,86.111,25,147,94,0.94872,1.7408,2.1416,1.5146,-95.183,47.591,0.014827,0.22408,0.2165
1,86.111,24,146,94,0.87003,1.5451,2.0964,1.3524,-93.172,46.586,0.022141,0.19923,0.18776
1,86.111,24,146,93,1.0457,1.8486,2.4501,1.7095,-102.09,51.044,0.016581,0.22358,0.21522
1,77.778,22,140,89,0.88612,1.6129,2.0686,1.3959,-86.192,43.096,0.022137,0.20784,0.19638
1,83.333,24,144,92,1.0181,1.8743,2.3078,1.6176,-102.57,51.283,0.013585,0.22359,0.21651
1,86.111,24,140,87,0.94992,1.708,2.1846,1.4885,-91.026,45.513,0.022051,0.19853,0.18704
1,86.111,23,145,93,1.0197,1.7921,2.4498,1.6787,-102.08,51.038,0.024135,0.21757,0.20549
1,86.111,24,146,94,0.93214,1.6651,2.2217,1.4847,-98.742,49.371,0.020102,0.22003,0.20981
1,83.333,24,143,91,1.0209,1.8734,2.3258,1.6583,-103.37,51.685,0.017232,0.21549,0.20659
1,88.889,24,145,93,0.80572,1.3844,2.0388,1.2355,-90.614,45.307,0.019232,0.20047,0.19038
1,88.889,24,146,94,0.96043,1.6787,2.3602,1.5686,-104.9,52.45,0.022989,0.21601,0.20464
1,88.889,25,147,94,1.1076,1.9994,2.5447,1.8296,-113.1,56.55,0.019218,0.23725,0.22757
1,83.333,24,143,91,0.99802,1.8182,2.3021,1.5801,-102.32,51.159,0.017743,0.22168,0.21249
1,86.111,23,143,91,0.97529,1.7038,2.3663,1.5769,-98.595,49.298,0.021648,0.20465,0.19365
1,88.889,25,146,93,1.1477,2.0517,2.6682,1.9597,-118.59,59.294,0.023035,0.22746,0.21594
1,86.111,24,145,93,1.0147,1.826,2.3837,1.6834,-105.94,52.971,0.015347,0.23228,0.22462
1,83.333,24,146,93,1.068,1.9317,2.4276,1.702,-101.15,50.574,0.022106,0.21313,0.20168
0,86.111,26,147,94,0.95521,1.7556,2.1681,1.6297,-102.38,51.191,0.012944,0.22757,0.22112
1,83.333,22,142,91,0.93238,1.626,2.323,1.505,-96.794,48.397,0.022821,0.21196,0.20056
1,83.333,24,146,93,1.0122,1.8274,2.3109,1.612,-96.289,48.145,0.014695,0.22502,0.21731
1,88.889,25,147,94,1.0393,1.8538,2.4332,1.6835,-108.14,54.072,0.020535,0.2147,0.2042
1,83.333,23,145,94,0.95585,1.701,2.3363,1.6086,-103.83,51.917,0.020415,0.22418,0.21415
1,86.111,24,146,93,1.0564,1.8826,2.4489,1.701,-102.04,51.019,0.02148,0.21091,0.19984
1,86.111,24,146,94,0.95876,1.7048,2.2984,1.5798,-102.15,51.075,0.016836,0.21021,0.20175
1,91.667,25,147,94,1.1104,1.9757,2.6016,1.8752,-115.63,57.814,0.021841,0.22387,0.21284
1,83.333,23,142,90,0.92819,1.6321,2.2362,1.4478,-93.177,46.589,0.019042,0.21767,0.20805
1,86.111,24,143,91,1.0113,1.847,2.3225,1.6791,-103.22,51.61,0.022565,0.21478,0.20316
1,83.333,23,145,94,0.84412,1.4855,2.1117,1.3565,-93.851,46.926,0.021603,0.21261,0.20202
1,86.111,24,144,91,1.0578,1.8815,2.4579,1.7063,-102.41,51.205,0.018232,0.2202,0.21102
1,86.111,25,147,94,1.0941,2.0074,2.4575,1.852,-109.22,54.611,0.01168,0.22723,0.22129
1,86.111,24,142,90,0.95384,1.6926,2.2939,1.5932,-101.95,50.976,0.016808,0.20928,0.2007
0,191.67,48,172,120,0.94599,1.8154,2.2354,1.7169,-248.37,124.19,0.0097413,0.22675,0.22182
1,88.889,25,144,91,1.0359,1.8617,2.4005,1.7049,-106.69,53.344,0.020498,0.21882,0.2084
0,166.67,59,188,126,1.5714,2.8954,3.6677,2.624,-417.71,208.86,0.0022286,0.42368,0.42054
1,91.667,25,140,87,0.99726,1.7283,2.4279,1.673,-107.91,53.953,0.020675,0.20361,0.19304
0,169.44,60,177,119,1.5871,2.9393,3.6452,2.6931,-415.15,207.58,0.0022478,0.40826,0.40509
1,83.333,24,146,94,0.98446,1.786,2.287,1.6846,-101.65,50.823,0.025808,0.21182,0.19822
0,188.89,67,193,125,1.6633,2.891,3.9908,2.6024,-454.51,227.25,0.0029634,0.51838,0.5142
1,83.333,23,143,91,0.98493,1.7053,2.4177,1.634,-100.74,50.369,0.025803,0.19466,0.1809
0,177.78,63,190,128,1.6503,3.0463,3.7439,2.8118,-426.39,213.2,0.0025533,0.41066,0.40706
1,86.111,24,141,89,0.89586,1.5947,2.1492,1.535,-95.522,47.761,0.02269,0.19915,0.18755
0,211.11,55,180,122,1.4228,2.6975,3.235,2.4604,-368.43,184.22,0.001586,0.31513,0.31289
1,83.333,23,142,90,0.97154,1.6931,2.3653,1.5726,-98.556,49.278,0.02478,0.21366,0.20107
0,194.44,49,172,120,1.1594,2.2387,2.6596,1.9856,-302.9,151.45,0.0037853,0.26814,0.26536
1,86.111,24,146,93,1.0601,1.9244,2.3986,1.7604,-99.943,49.972,0.014662,0.22243,0.21493
1,86.111,25,145,92,1.0806,2.0043,2.39,1.767,-106.22,53.111,0.0093307,0.23352,0.22859
1,80.556,23,144,92,1.0227,1.875,2.3119,1.6783,-96.328,48.164,0.015596,0.21664,0.20885
0,197.22,50,172,119,1.2745,2.4651,2.8601,2.2038,-325.73,162.86,0.007633,0.26383,0.25965
1,88.889,23,142,90,0.95399,1.6381,2.3701,1.5075,-98.753,49.376,0.025679,0.20345,0.19021
0,80.556,23,145,93,1.1771,2.1466,2.6632,1.9099,-110.96,55.482,0.019641,0.23523,0.22507
1,86.111,25,144,91,1.0175,1.9267,2.1862,1.6579,-97.162,48.581,0.029894,0.20005,0.18281
0,86.111,25,145,92,1.0656,1.9532,2.3995,1.771,-106.65,53.323,0.012602,0.22504,0.21874
1,88.889,25,143,90,0.94024,1.6458,2.264,1.511,-100.62,50.312,0.020077,0.19902,0.18848
0,188.89,47,171,119,1.0763,2.0794,2.4543,1.9919,-265.88,132.94,0.016674,0.20762,0.19937
1,88.889,25,147,95,1.023,1.8273,2.4568,1.7271,-116.02,58.008,0.02283,0.22456,0.21265
0,197.22,50,175,122,1.2031,2.3252,2.7147,2.0515,-309.17,154.58,0.020753,0.22385,0.21205
1,86.111,24,144,92,0.85595,1.5292,2.0455,1.3381,-90.91,45.455,0.0185,0.19771,0.18796
0,208.33,54,176,119,1.3385,2.5646,2.9897,2.3513,-340.5,170.25,0.0016698,0.2887,0.28667
1,86.111,23,141,90,0.95024,1.6784,2.3518,1.6198,-104.52,52.261,0.02796,0.2054,0.19086
0,194.44,49,171,119,1.2733,2.4697,2.8528,2.2815,-324.91,162.45,0.0089274,0.25228,0.24752
1,88.889,25,146,93,1.1541,2.0838,2.646,1.9637,-117.6,58.8,0.02476,0.22405,0.2109
0,205.56,53,175,119,1.2989,2.4849,2.9386,2.2943,-334.67,167.34,0.0013203,0.27843,0.27657
1,88.889,24,144,92,0.98918,1.7484,2.3894,1.6722,-106.2,53.098,0.023956,0.20962,0.19729
0,194.44,49,171,119,1.2515,2.4206,2.8396,2.247,-323.4,161.7,0.009764,0.25052,0.24553
1,86.111,24,146,94,0.99063,1.796,2.3031,1.6515,-102.36,51.18,0.02382,0.1999,0.18734
0,213.89,56,175,119,1.3571,2.5727,3.0668,2.3522,-349.28,174.64,0.0015672,0.32201,0.3198
1,86.111,24,146,94,0.97026,1.7184,2.3387,1.6467,-103.94,51.971,0.031394,0.20423,0.18754
0,166.67,59,191,129,1.5562,2.8941,3.5728,2.6452,-406.9,203.45,0.0021427,0.40633,0.40331
1,83.333,23,141,89,0.95517,1.6957,2.2688,1.5917,-94.532,47.266,0.026717,0.19338,0.17946
0,166.67,59,177,117,1.5621,2.9395,3.508,2.5621,-399.52,199.76,0.0025879,0.52769,0.52404
1,88.889,24,146,93,1.058,1.866,2.4848,1.8193,-103.53,51.767,0.035012,0.19015,0.17034
0,172.22,61,183,119,1.646,3.0374,3.778,2.7727,-430.27,215.13,0.0023523,0.42941,0.42609
1,88.889,25,147,94,0.94422,1.6628,2.2554,1.6268,-100.24,50.12,0.019933,0.20119,0.19106
0,208.33,54,179,122,1.4242,2.7094,3.2353,2.4922,-368.46,184.23,0.001537,0.31197,0.30981
1,83.333,24,144,92,0.9838,1.7702,2.3145,1.6641,-102.87,51.434,0.021459,0.21233,0.20139
0,205.56,53,176,120,1.3272,2.5433,2.9863,2.356,-340.1,170.05,0.0013765,0.28766,0.28572
1,86.111,24,142,89,1.0653,1.8741,2.5093,1.7584,-104.56,52.278,0.022154,0.21201,0.20097
1,88.889,26,148,95,0.98753,1.7794,2.3059,1.6797,-108.89,54.445,0.016207,0.22655,0.21845
1,83.333,23,145,93,1.0145,1.8241,2.3608,1.6754,-98.367,49.184,0.016099,0.21665,0.20864
1,88.889,25,147,95,0.90808,1.6171,2.2013,1.4892,-103.95,51.974,0.013972,0.21443,0.2074
1,88.889,24,144,91,1.0366,1.8092,2.4682,1.6701,-102.84,51.421,0.018361,0.21572,0.20667
1,88.889,25,144,90,0.98822,1.7525,2.2801,1.5853,-95.003,47.502,0.012607,0.22029,0.214
1,86.111,24,145,93,0.84788,1.5029,2.0504,1.3842,-91.13,45.565,0.018913,0.20694,0.19755
1,86.111,23,142,91,0.91771,1.5978,2.3274,1.4413,-103.44,51.72,0.029927,0.21415,0.1988
1,88.889,25,147,95,0.94934,1.7063,2.2644,1.5919,-106.93,53.465,0.017312,0.21974,0.21103
0,197.22,50,172,119,1.1899,2.2806,2.7706,2.1093,-315.54,157.77,0.003882,0.25804,0.25532
1,88.889,25,144,91,0.93443,1.6342,2.253,1.5095,-100.13,50.066,0.018109,0.20623,0.19717
0,211.11,55,184,126,1.3622,2.5846,3.0944,2.393,-352.42,176.21,0.0015194,0.31022,0.30808
1,86.111,24,146,93,0.93592,1.6368,2.2303,1.5165,-92.927,46.464,0.024905,0.19416,0.18113
0,177.78,63,183,119,1.59,2.8825,3.7069,2.6834,-422.18,211.09,0.0025921,0.45189,0.44823
1,91.667,25,147,94,0.96967,1.7014,2.3255,1.6667,-103.35,51.677,0.031791,0.18987,0.17115
0,244.44,67,183,115,1.6437,2.9028,3.8717,2.6058,-440.94,220.47,0.0029916,0.51152,0.5073
1,86.111,25,146,93,1.068,1.9381,2.439,1.8892,-108.4,54.201,0.031633,0.18653,0.16771
0,161.11,57,177,119,1.4954,2.7842,3.4787,2.4349,-396.19,198.09,0.0024793,0.53391,0.53042
1,88.889,25,145,92,1.0921,1.9589,2.5324,1.8991,-112.55,56.275,0.024299,0.20984,0.19715
0,197.22,50,172,119,1.3491,2.5927,3.0919,2.3579,-352.13,176.06,0.001338,0.28732,0.28548
1,88.889,25,147,94,1.0893,1.9413,2.5486,1.8142,-113.27,56.635,0.017519,0.22294,0.21402
1,88.889,26,145,91,1.0308,1.8419,2.3769,1.7112,-105.64,52.82,0.01453,0.22618,0.21905
1,86.111,25,141,88,1.0513,1.9077,2.4027,1.7191,-106.79,53.394,0.016871,0.2264,0.21776
0,194.44,49,171,119,0.99472,1.9072,2.3648,1.7577,-269.33,134.66,0.008065,0.23438,0.23016
1,83.333,23,143,92,0.96624,1.7256,2.3466,1.6596,-104.29,52.146,0.022027,0.22451,0.2136
0,194.44,49,171,119,1.1281,2.1725,2.6202,1.9648,-298.41,149.21,0.0061221,0.26507,0.2615
1,80.556,23,145,94,0.91323,1.6725,2.1294,1.5175,-94.639,47.319,0.02633,0.19876,0.18511
0,202.78,52,174,119,1.3886,2.6586,3.1545,2.4795,-359.26,179.63,0.0015091,0.3001,0.29816
1,86.111,24,144,92,1.0267,1.8238,2.458,1.7204,-109.24,54.621,0.03124,0.2059,0.18926
0,222.22,59,187,125,1.5994,2.9944,3.6245,2.7249,-412.79,206.4,0.0019387,0.37574,0.373
1,83.333,23,145,93,0.95142,1.6928,2.253,1.5676,-93.876,46.938,0.034557,0.18534,0.16539
0,158.33,56,176,119,1.4798,2.7849,3.3927,2.455,-386.39,193.2,0.0024751,0.52051,0.51702
1,83.333,23,141,89,1.0265,1.828,2.4203,1.7858,-100.85,50.424,0.028192,0.2006,0.18594
0,208.33,54,176,119,1.4593,2.7732,3.3219,2.5141,-378.32,189.16,0.0015762,0.32755,0.32533
1,86.111,24,146,94,0.86122,1.5207,2.0933,1.3892,-93.036,46.518,0.022743,0.1972,0.18507
0,194.44,49,172,120,1.0499,2.0168,2.472,1.8636,-281.53,140.77,0.011094,0.24672,0.24102
1,83.333,23,142,90,0.9753,1.7327,2.3123,1.5687,-96.346,48.173,0.024745,0.20459,0.19104
0,197.22,50,172,119,1.1023,2.1448,2.431,1.9451,-276.86,138.43,0.01265,0.21972,0.21353
1,91.667,25,147,94,1.1169,1.9959,2.6009,1.903,-115.6,57.798,0.025993,0.22001,0.20674
0,86.111,25,143,90,0.96415,1.7553,2.1999,1.6326,-97.772,48.886,0.014442,0.22783,0.22061
1,83.333,24,143,91,0.93095,1.6852,2.1747,1.4983,-96.654,48.327,0.023685,0.20554,0.19287
0,194.44,49,171,119,1.0748,2.0719,2.4922,1.9177,-283.83,141.92,0.0075899,0.24504,0.24101
1,88.889,25,140,88,0.91628,1.6394,2.2041,1.543,-104.08,52.041,0.023544,0.21177,0.19983
0,202.78,52,177,122,1.3216,2.5296,3.0108,2.3179,-342.9,171.45,0.0015194,0.29929,0.29718
1,88.889,25,147,94,1.0366,1.8731,2.3843,1.7473,-105.97,52.985,0.028756,0.2003,0.18486
0,166.67,59,179,119,1.6184,3.0363,3.6522,2.6653,-415.94,207.97,0.0028893,0.55252,0.54845
1,86.111,24,146,94,1.0348,1.8653,2.4225,1.7811,-107.67,53.833,0.039319,0.18691,0.16293
0,247.22,68,190,121,1.6973,2.9709,4.0153,2.6954,-457.29,228.65,0.0031047,0.53063,0.52625
1,86.111,24,143,91,0.92998,1.6446,2.2498,1.6009,-99.993,49.996,0.024394,0.19734,0.18467
0,172.22,61,182,121,1.6912,3.1263,3.8681,2.889,-440.53,220.27,0.0023913,0.44572,0.44235
1,88.889,25,146,93,1.087,1.94,2.5388,1.8866,-112.84,56.418,0.02333,0.23071,0.21875
0,113.89,35,147,87,1.0253,1.8232,2.2303,1.6458,-99.124,49.562,0.01651,0.22601,0.21812
1,91.667,25,142,90,0.9092,1.6168,2.2086,1.5295,-104.29,52.147,0.02144,0.20992,0.19896
1,86.111,24,145,93,1.0239,1.8437,2.4022,1.6792,-106.77,53.383,0.018513,0.22132,0.21193
1,83.333,25,144,91,1.0977,2.023,2.4496,1.8444,-108.87,54.436,0.01383,0.23831,0.23133
1,86.111,25,144,90,1.0474,1.9004,2.3478,1.7342,-97.824,48.912,0.015621,0.21335,0.2056
1,86.111,24,146,93,0.98479,1.7548,2.2887,1.6243,-95.364,47.682,0.01424,0.21167,0.20467
1,83.333,24,142,90,0.97767,1.7507,2.3176,1.622,-103,51.502,0.018026,0.21391,0.20525
1,88.889,25,146,93,1.1022,1.9776,2.5538,1.8223,-113.5,56.751,0.024591,0.21979,0.20717
0,163.89,58,186,125,1.5167,2.8251,3.4973,2.5766,-398.31,199.15,0.0020389,0.38401,0.38113
1,86.111,23,150,98,1.0434,1.8576,2.4596,1.7991,-102.48,51.242,0.037631,0.18925,0.16688
0,219.44,78,198,119,1.5005,2.6328,3.4002,2.3931,-387.24,193.62,0.0024359,0.51575,0.51231
1,86.111,25,147,94,1.0942,1.975,2.5154,1.8471,-111.8,55.898,0.030198,0.20422,0.18784
1,83.333,23,145,93,1.0301,1.859,2.3828,1.5996,-99.284,49.642,0.024413,0.21025,0.19758
1,86.111,23,141,89,0.97461,1.6831,2.4013,1.5605,-100.06,50.028,0.023413,0.21612,0.20455
0,194.44,49,171,119,1.0273,1.9739,2.4175,1.8295,-275.33,137.66,0.008388,0.24117,0.2367
1,83.333,23,145,94,0.91749,1.6714,2.159,1.4966,-95.955,47.977,0.028144,0.20362,0.18876
0,194.44,49,173,121,0.99487,1.9185,2.31,1.8058,-263.09,131.54,0.0052486,0.2405,0.23774
1,86.111,24,146,94,1.0489,1.8906,2.4546,1.7607,-109.1,54.548,0.02563,0.22274,0.20961
0,219.44,58,179,119,1.4564,2.7545,3.2615,2.5092,-371.45,185.72,0.001628,0.33996,0.33766
1,88.889,23,140,88,0.98824,1.7164,2.4153,1.6212,-100.64,50.319,0.031041,0.19996,0.18379
0,175,62,180,119,1.7677,3.2561,4.0396,2.9877,-460.07,230.03,0.0025833,0.46331,0.45967
1,83.333,24,146,94,1.0137,1.8439,2.3425,1.7463,-104.11,52.056,0.03241,0.19871,0.18024
0,180.56,64,187,123,1.7776,3.2656,4.0363,3.0145,-459.69,229.84,0.0027703,0.4762,0.47229
1,86.111,24,145,93,1.0523,1.8861,2.4835,1.8203,-110.38,55.189,0.029947,0.21061,0.19451
0,86.111,25,144,91,1.1102,2.0451,2.4776,1.8246,-110.11,55.057,0.019746,0.2367,0.22679
1,86.111,23,142,91,0.90762,1.6124,2.2298,1.4876,-99.101,49.551,0.024535,0.21625,0.20395
1,88.889,25,147,94,1.1445,2.0723,2.6144,1.9255,-116.19,58.097,0.018988,0.23208,0.22256
1,83.333,23,145,93,1.0463,1.8996,2.3971,1.7074,-99.88,49.94,0.02833,0.20969,0.19471
1,83.333,24,146,94,0.96742,1.7378,2.2834,1.6235,-101.48,50.742,0.021298,0.21772,0.20735
1,86.111,24,144,92,1.0001,1.7964,2.3578,1.6278,-104.79,52.396,0.021086,0.21635,0.20558
0,194.44,49,171,119,1.2582,2.4406,2.8194,2.2076,-321.1,160.55,0.01266,0.26292,0.25642
1,91.667,26,145,92,1.0302,1.8404,2.4319,1.755,-114.84,57.42,0.025649,0.21459,0.20135
0,172.22,61,178,119,1.7146,3.1694,3.921,2.9028,-446.56,223.28,0.002553,0.46292,0.45932
1,83.333,24,143,91,1.0478,1.8988,2.4323,1.8146,-108.1,54.05,0.026492,0.20714,0.1928
0,186.11,66,184,117,1.7391,3.1615,3.9695,2.8111,-452.08,226.04,0.0028284,0.50499,0.501
1,83.333,23,143,91,1.086,1.9141,2.5917,1.8455,-107.99,53.993,0.031386,0.20432,0.18762
0,197.22,50,172,119,1.3483,2.5956,3.0714,2.3311,-349.79,174.9,0.0032107,0.29505,0.29245
1,83.333,23,141,90,0.90806,1.6404,2.1692,1.5097,-96.407,48.203,0.024723,0.202,0.18922
0,155.56,55,181,123,1.3476,2.5596,3.0542,2.4131,-347.84,173.92,0.0016039,0.31415,0.31189
1,88.889,26,147,94,1.1846,2.2085,2.6082,2.0771,-123.17,61.583,0.020495,0.23777,0.22732
0,194.44,49,171,119,1.0078,1.94,2.3559,1.6895,-268.31,134.16,0.012198,0.23849,0.23212
1,88.889,26,141,88,1.0008,1.8535,2.2419,1.6912,-105.87,52.933,0.014796,0.21962,0.21211
0,186.11,46,169,116,1.2269,2.3693,2.7374,2.1272,-281.34,140.67,0.0041836,0.26272,0.25976
1,86.111,23,143,91,1.0613,1.8481,2.5776,1.7666,-107.4,53.699,0.029172,0.20879,0.19354
1,86.111,24,144,91,1.0634,1.9225,2.4188,1.7295,-100.78,50.391,0.022762,0.21415,0.20233
1,83.333,24,146,94,0.95831,1.753,2.1999,1.5589,-97.775,48.888,0.022678,0.21006,0.19833
1,88.889,24,144,92,0.96042,1.6885,2.3406,1.5863,-104.03,52.014,0.020152,0.21199,0.20187
1,80.556,23,142,91,0.87477,1.5621,2.1341,1.414,-94.849,47.424,0.022314,0.20927,0.19789
0,194.44,49,172,120,1.0924,2.1227,2.4473,1.9539,-278.72,139.36,0.0064929,0.23397,0.23056
1,86.111,23,139,87,0.87605,1.5062,2.1789,1.3779,-90.788,45.394,0.026604,0.19973,0.18618
0,172.22,61,180,119,1.6518,3.0769,3.7317,2.7797,-425,212.5,0.0022717,0.42023,0.41703
1,86.111,24,146,93,1.0653,1.9049,2.4577,1.7987,-102.4,51.202,0.029683,0.20068,0.184
0,166.67,59,179,119,1.5669,2.931,3.5581,2.5768,-405.23,202.61,0.0024689,0.51493,0.51145
1,86.111,24,146,94,0.96425,1.721,2.2984,1.6347,-102.15,51.075,0.031641,0.19724,0.17983
0,219.44,58,180,120,1.4279,2.6843,3.2379,2.4463,-368.76,184.38,0.0016791,0.33814,0.33578
1,83.333,23,139,88,0.79889,1.3982,2.0199,1.3465,-89.775,44.887,0.022563,0.20019,0.18882
0,197.22,50,172,119,1.2349,2.3868,2.783,2.2001,-316.95,158.48,0.010722,0.26249,0.25674
1,86.111,24,146,93,1.0329,1.8515,2.3782,1.7224,-99.093,49.546,0.027007,0.19884,0.18485
0,200,51,173,119,1.296,2.5102,2.8665,2.3415,-326.46,163.23,0.0042214,0.27985,0.27702
1,91.667,25,144,91,0.98351,1.7532,2.3087,1.6881,-102.61,51.305,0.02158,0.20103,0.19013
0,213.89,56,180,122,1.3428,2.5326,3.0707,2.3917,-349.72,174.86,0.0016244,0.29904,0.29674
1,230.56,62,180,118,0.69398,1.2797,1.5694,1.1988,-170.01,85.007,0.00073515,0.15568,0.15464
0,250,69,199,122,1.0223,1.8341,2.3481,1.7283,-267.42,133.71,0.0013916,0.2694,0.26744
1,225,60,190,114,0.73515,1.3312,1.6383,1.2836,-150.18,75.09,0.00073258,0.16371,0.16268
0,172.22,61,190,126,1.4833,2.7749,3.3336,2.6351,-379.66,189.83,0.0021301,0.36277,0.35977
1,241.67,66,188,119,0.84228,1.5646,1.878,1.5055,-213.89,106.94,0.0080551,0.18623,0.18196
0,227.78,61,182,118,0.92047,1.7019,2.0999,1.5914,-233.33,116.66,0.00085854,0.2048,0.20359
1,227.78,61,188,115,0.74581,1.3334,1.733,1.2856,-178.12,89.058,0.0007904,0.16931,0.16819
0,247.22,68,195,119,0.80758,1.4811,1.8162,1.3617,-206.85,103.42,0.00081444,0.18265,0.18151
1,244.44,67,190,119,0.78492,1.433,1.7832,1.3204,-203.09,101.54,0.0022432,0.18896,0.18722
0,233.33,63,186,119,0.92279,1.6948,2.1212,1.6006,-241.58,120.79,0.00090186,0.21248,0.21121
1,141.67,45,166,90,0.81397,1.3981,1.7644,1.346,-83.32,41.66,0.0043511,0.17076,0.16832
0,238.89,65,192,119,1.1271,2.06,2.5776,1.9533,-293.56,146.78,0.0012715,0.25589,0.2541
1,133.33,41,170,96,0.75965,1.345,1.6277,1.2566,-72.341,36.171,0.0069358,0.14887,0.14533
0,188.89,67,185,117,1.5196,2.7293,3.51,2.5611,-399.75,199.88,0.0027697,0.46221,0.45831
1,130.56,42,165,95,0.8989,1.5672,1.9497,1.5476,-92.067,46.033,0.0087649,0.18212,0.1775
0,233.33,63,186,117,0.81651,1.501,1.8444,1.3427,-199.81,99.905,0.0031004,0.18696,0.18485
1,202.78,52,174,112,0.5681,1.0163,1.3608,0.91262,-128.52,64.261,0.0007365,0.1665,0.16546
1,225,60,178,116,0.68603,1.2025,1.6627,1.1008,-175.51,87.753,0.00095598,0.18467,0.18332
1,108.33,33,152,94,0.87465,1.5182,1.9581,1.3829,-87.026,43.513,0.0044314,0.2016,0.19875
1,91.667,26,143,90,0.92128,1.6369,2.1994,1.5333,-103.86,51.93,0.011474,0.21781,0.21212
1,83.333,23,145,93,0.95025,1.6751,2.2796,1.5371,-94.983,47.492,0.021374,0.21295,0.20243
0,197.22,50,172,119,1.1348,2.1865,2.5963,2.0113,-295.69,147.84,0.01499,0.22667,0.2191
1,88.889,25,144,91,1.0175,1.8091,2.394,1.7234,-106.4,53.2,0.022664,0.21401,0.20244
0,197.22,70,188,117,1.661,2.9845,3.7804,2.6024,-430.55,215.27,0.0031356,0.51427,0.50984
1,83.333,23,143,91,1.0126,1.8138,2.3692,1.7751,-98.715,49.358,0.029201,0.19494,0.17938
0,177.78,63,185,119,1.6312,3.0151,3.694,2.7566,-420.7,210.35,0.0023728,0.45026,0.44691
1,86.111,24,146,95,0.88291,1.5421,2.2633,1.5191,-106.88,53.438,0.02632,0.20558,0.19195
0,194.44,49,175,121,1.378,2.6486,3.1005,2.3592,-335.88,167.94,0.0044353,0.28733,0.28406
1,83.333,24,141,89,0.92974,1.6757,2.1865,1.5195,-97.178,48.589,0.0192,0.21087,0.2008
0,194.44,49,171,119,1.053,2.0323,2.4317,1.8757,-276.95,138.47,0.0053795,0.24328,0.24012
1,83.333,23,143,92,0.91345,1.5931,2.3109,1.4986,-102.71,51.353,0.022866,0.21239,0.20091
0,86.111,25,145,92,1.0565,1.9152,2.4176,1.7428,-107.45,53.724,0.011856,0.23869,0.23262
1,83.333,24,142,89,0.98708,1.7873,2.2466,1.5928,-93.607,46.803,0.017895,0.21082,0.20163
0,188.89,47,170,118,1.0894,2.0966,2.5209,1.9271,-273.1,136.55,0.0076863,0.24023,0.23616
1,88.889,25,145,92,1.1897,2.1269,2.7613,2.0108,-122.73,61.363,0.02043,0.23201,0.22174
0,186.11,46,172,118,1.3143,2.5288,2.9229,2.2901,-292.29,146.14,0.0039916,0.28132,0.27833
1,88.889,24,143,90,1.0318,1.7916,2.4728,1.7159,-103.03,51.516,0.019103,0.22014,0.21079
0,194.44,49,171,119,1.1926,2.3007,2.7426,2.1139,-312.35,156.18,0.0014752,0.2711,0.2693
1,88.889,24,144,92,0.95595,1.7258,2.2402,1.5919,-99.563,49.782,0.022773,0.20109,0.18935
0,166.67,59,179,119,1.5937,3.0041,3.5654,2.7598,-406.06,203.03,0.0020348,0.38902,0.38615
0,147.22,38,160,95,0.62602,0.80668,1.6114,0.69083,-76.095,38.048,0.0026499,0.15387,0.15149
1,197.22,50,172,119,1.0837,2.0793,2.5229,1.8328,-287.32,143.66,0.010838,0.24981,0.2443
1,83.333,25,145,92,1.1445,2.1475,2.482,1.9464,-110.31,55.156,0.013098,0.23283,0.22612
1,197.22,50,172,119,1.1605,2.2352,2.6566,2.0324,-302.56,151.28,0.0085838,0.24502,0.24052
1,91.667,26,148,96,0.92373,1.698,2.1448,1.512,-107.24,53.62,0.021989,0.20512,0.19363
0,211.11,55,184,126,1.4681,2.8069,3.2666,2.5946,-372.03,186.01,0.0024641,0.32089,0.31824
1,88.889,24,146,94,0.9744,1.7257,2.3482,1.5958,-104.36,52.182,0.029879,0.2048,0.18848
0,211.11,55,179,121,1.4734,2.8148,3.2848,2.571,-374.1,187.05,0.0025423,0.30323,0.30048
1,94.444,25,143,89,1.0436,1.8006,2.4794,1.7094,-103.31,51.655,0.023667,0.21173,0.19963
0,211.11,55,178,120,1.5351,2.9141,3.4719,2.6555,-395.41,197.71,0.0016982,0.3353,0.33291
1,83.333,23,145,93,0.88985,1.5642,2.1479,1.4257,-89.494,44.747,0.023716,0.20355,0.19109
0,208.33,54,178,121,1.3196,2.5061,3.0177,2.2956,-343.68,171.84,0.0013904,0.31827,0.31631
1,88.889,24,144,92,0.97607,1.7166,2.3761,1.6254,-105.6,52.802,0.027669,0.21186,0.19743
0,88.889,26,148,95,0.99222,1.8275,2.242,1.6437,-105.87,52.936,0.012624,0.22826,0.22183
1,86.111,23,145,93,0.9834,1.7612,2.3044,1.603,-96.017,48.009,0.024636,0.20636,0.19373
0,191.67,48,172,120,1.1563,2.2334,2.6408,2.1166,-293.42,146.71,0.0075097,0.24216,0.23823
1,86.111,24,146,94,0.92008,1.641,2.199,1.4764,-97.733,48.867,0.023445,0.21081,0.19865
0,219.44,58,179,120,1.4446,2.7035,3.3038,2.4921,-376.27,188.13,0.0017717,0.35756,0.35506
1,86.111,23,141,89,0.98671,1.7072,2.4241,1.651,-101,50.502,0.02282,0.20706,0.19556
0,163.89,58,183,122,1.444,2.7085,3.2878,2.477,-374.45,187.22,0.001851,0.35217,0.34956
1,83.333,23,137,85,1.0024,1.7922,2.3525,1.6964,-98.023,49.011,0.029446,0.19831,0.18272
0,172.22,61,186,123,1.5565,2.8833,3.5532,2.6599,-404.67,202.34,0.0022781,0.40737,0.40416
1,88.889,25,144,91,1.0641,1.8883,2.5066,1.7979,-111.4,55.701,0.024076,0.21419,0.20166
1,83.333,24,146,94,1.0637,1.9282,2.4659,1.757,-109.6,54.799,0.014288,0.23257,0.22523
1,88.889,24,146,94,0.9597,1.6831,2.3472,1.593,-104.32,52.159,0.01558,0.21489,0.20716
1,83.333,24,144,91,1.0786,1.9192,2.5033,1.7467,-104.31,52.153,0.018766,0.22591,0.21667
1,86.111,25,141,88,1.083,1.9795,2.4469,1.7688,-108.75,54.375,0.016991,0.22159,0.21283
1,88.889,24,146,94,1.0119,1.784,2.451,1.6738,-108.94,54.468,0.018634,0.22736,0.21812
1,86.111,24,146,94,1.0266,1.8262,2.4526,1.6789,-109.01,54.503,0.021116,0.21459,0.20369
0,197.22,50,172,119,1.0868,2.091,2.5043,1.882,-285.21,142.61,0.010275,0.25525,0.24998
1,91.667,25,146,94,1.0234,1.808,2.5002,1.7523,-118.06,59.032,0.025229,0.22016,0.20714
0,188.89,67,181,113,1.6635,2.938,3.9173,2.6012,-446.13,223.07,0.0029822,0.54086,0.53666
1,194.44,49,173,121,1.0396,1.9862,2.5025,2.0976,-285.01,142.51,0.015238,0.29865,0.27619
0,197.22,50,172,119,1.1268,2.1743,2.564,2.1043,-292.01,146.01,0.02427,0.20727,0.19334
1,86.111,23,142,90,1.0967,1.9093,2.66,1.7978,-110.83,55.417,0.024695,0.21718,0.20435
1,86.111,24,145,93,1.0565,1.8807,2.5185,1.7362,-111.93,55.966,0.018242,0.23697,0.22789
1,86.111,25,147,94,1.1088,2.0313,2.4945,1.838,-110.87,55.433,0.020481,0.23207,0.2216
1,86.111,24,142,89,1.0867,1.9315,2.525,1.8201,-105.21,52.605,0.021385,0.21979,0.20897
1,86.111,24,146,94,1.1058,1.9722,2.6233,1.8854,-116.59,58.297,0.023349,0.22626,0.21464
1,83.333,23,144,92,0.99972,1.7661,2.3865,1.601,-99.438,49.719,0.019485,0.22673,0.21706
1,80.556,22,141,90,0.99449,1.8038,2.3226,1.6073,-96.775,48.388,0.023035,0.22453,0.21292
0,194.44,49,171,119,1.0212,1.9713,2.3588,1.8351,-268.64,134.32,0.013077,0.22068,0.21433
1,86.111,24,143,91,0.92216,1.6167,2.2598,1.531,-100.43,50.217,0.02016,0.21333,0.20321
0,169.44,60,188,125,1.5772,2.9259,3.6126,2.6931,-411.44,205.72,0.0021135,0.38284,0.37986
1,83.333,23,145,93,0.96983,1.7372,2.2732,1.6054,-94.718,47.359,0.03194,0.18786,0.16962
0,191.67,68,184,115,1.6859,3.0411,3.8514,2.6694,-438.63,219.31,0.0029805,0.52348,0.51927
1,80.556,23,145,94,0.95676,1.7056,2.3316,1.6341,-103.63,51.814,0.029696,0.21491,0.19955
1,88.889,25,145,92,0.99644,1.7942,2.3062,1.5737,-102.5,51.249,0.014114,0.22518,0.21773
1,88.889,24,141,89,0.9487,1.6701,2.3088,1.528,-102.61,51.306,0.019852,0.2119,0.20166
1,86.111,24,142,90,1.0496,1.8699,2.4997,1.717,-111.1,55.548,0.020689,0.22426,0.21369
1,83.333,24,143,91,0.96418,1.7367,2.2665,1.5481,-100.73,50.367,0.022339,0.21513,0.20339
1,91.667,26,148,96,0.89173,1.6027,2.1542,1.474,-107.71,53.855,0.018154,0.21348,0.20418
1,94.444,26,148,95,1.0733,1.8972,2.5684,1.812,-121.28,60.642,0.023965,0.22644,0.2142
1,86.111,25,143,90,1.134,2.0609,2.5781,1.8959,-114.58,57.29,0.019134,0.23345,0.22372
1,86.111,25,143,90,0.96193,1.7363,2.2214,1.5544,-98.727,49.363,0.018595,0.21731,0.2079
0,222.22,59,187,125,1.5009,2.7975,3.4341,2.6016,-391.1,195.55,0.0019438,0.37541,0.37266
1,83.333,23,145,93,1.0966,1.9233,2.6332,1.877,-109.71,54.857,0.025262,0.22156,0.20901
0,150,53,176,120,1.3723,2.6232,3.1066,2.3259,-353.8,176.9,0.0015261,0.31782,0.31567
1,83.333,24,146,94,1.0349,1.9072,2.3402,1.721,-104.01,52.004,0.024865,0.21246,0.19939
0,169.44,60,184,121,1.5876,2.936,3.6555,2.7311,-416.32,208.16,0.0020832,0.40025,0.39732
1,86.111,25,147,94,1.0141,1.8443,2.3135,1.7643,-102.82,51.412,0.023711,0.19424,0.18159
0,91.667,32,152,101,-0.55758,-0.47942,-2.7431,-0.31608,175.25,-87.627,0.002354,0.51616,0.51284
1,86.111,25,147,94,1.2174,2.1603,2.8515,1.936,-126.74,63.368,0.032117,0.22101,0.20492
1,83.333,25,145,92,1.0451,1.9538,2.2875,1.6856,-101.67,50.833,0.020754,0.204,0.19243
1,86.111,25,145,93,0.93155,1.6847,2.2016,1.5331,-103.96,51.982,0.014517,0.21564,0.2081
1,88.889,24,142,89,0.90007,1.5683,2.1568,1.4155,-89.867,44.934,0.020064,0.19921,0.18925
1,83.333,22,142,91,0.90469,1.5496,2.3171,1.4146,-96.545,48.272,0.021182,0.20041,0.18948
1,88.889,25,145,92,1.0166,1.8329,2.3467,1.6478,-104.3,52.15,0.0189,0.20833,0.19848
1,86.111,24,144,92,0.97554,1.7675,2.2717,1.5854,-100.96,50.482,0.012447,0.22584,0.21947
1,86.111,24,142,89,1.0287,1.8539,2.3524,1.6386,-98.015,49.008,0.023467,0.20007,0.18776
1,86.111,23,145,94,0.80333,1.3697,2.1136,1.2408,-93.938,46.969,0.022638,0.20375,0.19221
1,86.111,23,145,94,0.8771,1.5299,2.2222,1.4365,-98.763,49.382,0.021953,0.21079,0.1999
1,86.111,24,146,94,0.98112,1.7389,2.3612,1.5807,-104.94,52.472,0.018169,0.23051,0.22147
1,86.111,25,145,92,1.0925,1.9968,2.4679,1.7733,-109.68,54.841,0.017152,0.22414,0.21534
1,88.889,24,146,93,0.90092,1.5972,2.1131,1.3905,-88.045,44.022,0.026907,0.19489,0.18062
0,172.22,61,179,119,1.7089,3.1856,3.8541,2.9242,-438.94,219.47,0.0024258,0.44783,0.44441
1,86.111,24,146,94,1.0733,1.9107,2.5567,1.8437,-113.63,56.816,0.036883,0.21108,0.18968
0,191.67,68,185,116,1.7107,3.0323,3.9889,2.7447,-454.29,227.14,0.0029605,0.51147,0.50729
1,83.333,23,142,90,1.0111,1.805,2.3772,1.7707,-99.05,49.525,0.039556,0.17762,0.15496
0,161.11,57,177,119,1.5536,2.9212,3.5384,2.5682,-402.99,201.49,0.0024908,0.53981,0.5363
1,86.111,23,145,93,1.1349,2.0176,2.6699,1.9431,-111.24,55.622,0.035744,0.21095,0.1917
0,88.889,26,144,91,1.0982,2.0193,2.4788,1.8183,-117.05,58.527,0.014197,0.23321,0.22589
1,91.667,25,145,92,1.0155,1.7818,2.4319,1.6813,-108.08,54.042,0.023891,0.20504,0.19252
1,91.667,25,143,90,1.0485,1.8333,2.5198,1.736,-111.99,55.995,0.026184,0.21192,0.19826
1,86.111,25,143,90,1.0212,1.8224,2.3905,1.6548,-106.25,53.123,0.019796,0.223,0.21294
0,80.556,21,138,88,1.0741,1.9846,2.4545,1.5755,-102.27,51.136,0.051239,0.20897,0.18012
1,86.111,23,141,89,1.0223,1.7879,2.4718,1.7099,-102.99,51.497,0.022285,0.21657,0.20561
1,86.111,25,146,93,1.0598,1.9113,2.4419,1.7451,-108.53,54.264,0.020415,0.22526,0.21504
1,83.333,23,145,93,0.9604,1.708,2.2749,1.5642,-94.789,47.395,0.020029,0.21233,0.20211
1,86.111,24,146,93,1.005,1.801,2.3171,1.6127,-96.546,48.273,0.024886,0.19995,0.18681
1,88.889,24,146,94,0.96802,1.6965,2.3693,1.6081,-105.3,52.651,0.021344,0.21742,0.20704
1,88.889,25,147,94,1.0531,1.8967,2.4319,1.753,-108.08,54.042,0.021675,0.21469,0.2038
1,88.889,25,144,91,0.9439,1.6785,2.2258,1.5182,-98.926,49.463,0.020023,0.21735,0.20728
0,161.11,57,186,126,1.4904,2.817,3.3607,2.5777,-382.74,191.37,0.0017209,0.36575,0.36332
1,88.889,25,144,91,1.0886,1.9412,2.5448,1.861,-113.1,56.552,0.036536,0.19463,0.17214
0,155.56,55,175,119,1.3717,2.5328,3.3181,2.2857,-377.89,188.95,0.0027224,0.49885,0.49501
1,86.111,25,147,95,1.0427,1.924,2.3726,1.8872,-112.04,56.019,0.026007,0.2148,0.20067
1,86.111,25,143,90,1.1076,2.0412,2.4706,1.8446,-109.81,54.903,0.014086,0.23136,0.22429
1,91.667,25,147,94,0.92772,1.5848,2.3043,1.4513,-102.41,51.207,0.021725,0.20265,0.19122
1,86.111,24,146,94,1.0378,1.8361,2.4987,1.7051,-111.06,55.528,0.024241,0.21665,0.20418
1,83.333,24,143,91,0.90632,1.6403,2.1199,1.4311,-94.216,47.108,0.02134,0.21084,0.19977
1,80.556,24,143,91,0.9548,1.7674,2.1509,1.6179,-95.596,47.798,0.016091,0.21766,0.20978
1,125,38,160,94,0.87336,1.4022,1.9922,1.3335,-88.543,44.271,0.014526,0.20204,0.19505
1,88.889,24,146,94,0.92522,1.6028,2.3056,1.5246,-102.47,51.235,0.020898,0.20902,0.19847
1,83.333,24,145,92,1.0783,1.9749,2.4089,1.7839,-100.37,50.186,0.023207,0.2068,0.19481
0,161.11,57,186,126,1.4225,2.6503,3.3079,2.4206,-376.74,188.37,0.0017874,0.34734,0.34481
1,88.889,24,146,94,0.87278,1.5061,2.1906,1.4094,-97.36,48.68,0.029343,0.19091,0.17524
0,155.56,55,165,109,1.3918,2.5873,3.3149,2.3441,-377.53,188.77,0.0025765,0.52287,0.51923
1,83.333,24,144,91,1.1192,2.0456,2.5037,2.0221,-104.32,52.161,0.022095,0.21642,0.20528
1,88.889,26,146,93,1.0246,1.8734,2.3387,1.6571,-110.44,55.218,0.01128,0.23805,0.23223
1,119.44,36,158,94,0.88571,1.4377,2.0321,1.3236,-90.315,45.158,0.015777,0.2023,0.19455
1,91.667,25,145,92,1.0246,1.8067,2.4369,1.7268,-108.31,54.154,0.021186,0.20548,0.19468
1,127.78,40,159,92,0.98981,1.7068,2.1738,1.6109,-102.65,51.326,0.015834,0.20767,0.19985
1,86.111,24,144,91,1.0043,1.8131,2.2932,1.6775,-95.549,47.775,0.012272,0.22065,0.21446
1,88.889,25,147,94,0.88907,1.5654,2.1277,1.4133,-94.565,47.282,0.01879,0.19913,0.1895
1,83.333,24,146,94,0.9847,1.7717,2.3169,1.6459,-102.97,51.486,0.02048,0.21106,0.20083
1,80.556,23,145,94,0.93457,1.7278,2.1405,1.5326,-95.132,47.566,0.020401,0.19805,0.18724
1,86.111,25,147,94,1.0525,1.9517,2.3313,1.7646,-103.62,51.808,0.015425,0.21694,0.20911
1,91.667,25,146,93,1.0552,1.8766,2.4789,1.7578,-110.17,55.087,0.018237,0.21272,0.20361
1,86.111,25,147,94,1.0956,1.9779,2.5175,1.8567,-111.89,55.945,0.022651,0.21435,0.20265
1,86.111,25,143,90,1.0541,1.9474,2.3473,1.791,-104.33,52.163,0.015295,0.21967,0.21199
1,194.44,49,171,119,0.91301,1.7599,2.1301,1.5996,-242.59,121.29,0.01008,0.22062,0.21546
1,91.667,25,145,92,0.80841,1.3845,2.0083,1.2272,-89.259,44.629,0.015592,0.19283,0.18479
1,86.111,24,146,94,0.90294,1.6129,2.1546,1.458,-95.762,47.881,0.015927,0.21142,0.20358
1,86.111,26,145,91,1.0868,2.0075,2.397,1.8463,-106.53,53.267,0.015913,0.2114,0.20328
0,225,60,186,123,1.5502,2.8928,3.5153,2.6919,-400.35,200.18,0.0019341,0.37727,0.37454
1,94.444,26,148,94,1.0106,1.7819,2.3697,1.6783,-105.32,52.661,0.023348,0.18524,0.17248
0,155.56,55,175,119,1.378,2.5803,3.2292,2.3353,-367.77,183.88,0.0026983,0.53615,0.53235
1,130.56,40,161,92,0.99841,1.7218,2.1728,1.6985,-96.569,48.284,0.029748,0.17483,0.15636
0,225,80,208,128,1.4794,2.5295,3.4025,2.325,-387.51,193.75,0.0025179,0.48366,0.48011
1,83.333,23,145,94,0.87517,1.5267,2.217,1.4634,-98.533,49.267,0.030861,0.19102,0.17424
0,194.44,49,171,119,1.0242,1.9655,2.423,1.8325,-275.95,137.98,0.014212,0.21583,0.20866
1,86.111,24,145,93,1.0283,1.8601,2.3955,1.7388,-106.47,53.234,0.023891,0.2189,0.20667
1,88.889,24,143,91,0.88157,1.5956,2.0636,1.4333,-91.717,45.859,0.020965,0.20198,0.19118
1,88.889,25,144,92,0.94007,1.6625,2.3004,1.5427,-108.63,54.316,0.017954,0.21524,0.20624
1,86.111,24,146,94,0.92523,1.6414,2.2284,1.5194,-99.038,49.519,0.019306,0.21848,0.20885
1,83.333,23,145,93,0.98991,1.769,2.3262,1.6003,-96.924,48.462,0.018972,0.21661,0.20693
0,194.44,49,171,119,1.1,2.1211,2.5444,1.9729,-289.78,144.89,0.0026102,0.25143,0.24943
1,83.333,23,145,94,0.91321,1.6175,2.254,1.5299,-100.18,50.089,0.024087,0.21259,0.20054
0,180.56,64,181,119,1.7246,3.161,3.9305,2.9276,-447.64,223.82,0.0027231,0.46235,0.45851
1,113.89,34,148,86,0.96437,1.6695,2.1486,1.6492,-95.493,47.747,0.02656,0.19109,0.17742
0,188.89,67,186,118,1.6571,3.0189,3.757,2.7134,-427.88,213.94,0.0028936,0.49092,0.48684
1,88.889,25,145,93,1.0271,1.8593,2.4146,1.8385,-114.02,57.012,0.02405,0.20922,0.19671
1,88.889,26,148,94,1.1468,2.1016,2.5512,1.8909,-113.39,56.693,0.01856,0.22705,0.21772
1,88.889,24,143,90,1.1264,2.0005,2.6161,1.9023,-109,54.502,0.021156,0.22123,0.21069
1,83.333,23,145,93,1.0457,1.8654,2.4579,1.7017,-102.41,51.206,0.020266,0.22055,0.21045
1,83.333,23,141,89,1.0417,1.9051,2.3612,1.7406,-98.382,49.191,0.018016,0.22914,0.22033
1,86.111,23,140,88,0.91989,1.6174,2.2173,1.4932,-92.386,46.193,0.021729,0.20196,0.19092
1,88.889,24,146,94,0.96082,1.7057,2.3087,1.6346,-102.61,51.305,0.024163,0.21341,0.20111
1,86.111,24,141,89,0.91617,1.652,2.1542,1.5051,-95.742,47.871,0.019802,0.21747,0.20751
1,136.11,42,159,89,1.0137,1.7235,2.2078,1.6131,-98.124,49.062,0.020081,0.22061,0.21076
1,86.111,24,146,94,1.0399,1.8573,2.4687,1.7789,-109.72,54.859,0.023413,0.21888,0.20719
1,83.333,23,144,92,1.0649,1.9398,2.4261,1.7901,-101.09,50.544,0.021387,0.2155,0.20474
1,83.333,25,152,99,1.1828,2.2168,2.5655,2.0474,-114.02,57.012,0.015069,0.23782,0.23038
1,83.333,25,144,91,0.91149,1.6857,2.0366,1.5348,-90.517,45.259,0.021031,0.20517,0.19472
0,161.11,57,177,119,1.4641,2.727,3.4047,2.5152,-387.76,193.88,0.0026341,0.46592,0.46221
1,88.889,25,147,94,1.1405,2.0439,2.6435,1.9819,-117.49,58.745,0.045193,0.18666,0.15676
0,158.33,56,168,111,1.4375,2.6749,3.38,2.445,-384.94,192.47,0.002835,0.50845,0.50445
1,86.111,25,147,95,0.99548,1.82,2.3053,1.7647,-108.86,54.43,0.02922,0.20352,0.18738
1,83.333,24,146,93,1.0102,1.8199,2.3126,1.6384,-96.36,48.18,0.011659,0.22778,0.22195
1,91.667,24,145,92,1.0065,1.734,2.4368,1.6273,-101.53,50.767,0.021267,0.20824,0.19742
1,83.333,23,142,90,0.99724,1.7828,2.3414,1.6379,-97.559,48.779,0.016158,0.22183,0.21383
1,83.333,24,143,90,1.0556,1.9371,2.354,1.7868,-98.085,49.043,0.017746,0.21095,0.20201
1,150,47,172,93,1.0842,1.7955,2.3549,1.7268,-104.66,52.33,0.015041,0.21821,0.21091
1,88.889,24,144,92,0.95527,1.6808,2.3259,1.5921,-103.37,51.687,0.023719,0.20897,0.19674
1,83.333,24,145,93,0.95632,1.716,2.2618,1.5829,-100.53,50.263,0.018798,0.21361,0.20437
1,86.111,24,146,94,0.91902,1.6439,2.187,1.547,-97.2,48.6,0.017841,0.20522,0.19631
1,86.111,24,143,90,1.0405,1.8284,2.4564,1.7115,-102.35,51.176,0.016886,0.22004,0.21194
1,83.333,24,146,94,0.96408,1.7774,2.1852,1.596,-97.122,48.561,0.017883,0.21115,0.20211
1,86.111,25,147,94,0.98443,1.8147,2.2048,1.6518,-97.99,48.995,0.013867,0.21554,0.20856
1,88.889,24,146,94,0.82445,1.4215,2.0751,1.3137,-92.228,46.114,0.016675,0.2064,0.19825
0,172.22,61,178,119,1.6154,3.0057,3.658,2.8001,-416.61,208.3,0.0024591,0.41131,0.40784
1,88.889,26,148,95,0.984,1.7709,2.3021,1.7304,-108.71,54.356,0.025481,0.21043,0.19714
0,250,69,188,118,1.5676,2.7983,3.6115,2.5073,-411.31,205.66,0.0029563,0.48661,0.48244
1,86.111,24,142,90,0.94036,1.6469,2.3062,1.635,-102.5,51.249,0.034996,0.19815,0.17925
0,183.33,65,185,119,1.7211,3.163,3.8895,2.831,-442.97,221.49,0.002914,0.47872,0.47461
1,80.556,23,145,93,0.89326,1.5887,2.1212,1.541,-88.384,44.192,0.02374,0.20368,0.19187
1,86.111,24,143,91,0.92384,1.6208,2.2614,1.5078,-100.51,50.254,0.019928,0.20922,0.19921
1,88.889,24,146,94,1.0917,1.9369,2.6114,1.8824,-116.06,58.031,0.024036,0.22591,0.21369
1,94.444,26,148,94,1.1269,2.0157,2.5877,1.88,-115.01,57.504,0.020407,0.22312,0.21281
1,86.111,24,146,94,1.0002,1.8386,2.2741,1.708,-101.07,50.535,0.018159,0.21299,0.20413
1,88.889,25,144,92,1.0086,1.8039,2.4188,1.7278,-114.22,57.112,0.023703,0.22922,0.21738
1,86.111,24,143,91,1.0102,1.8111,2.3872,1.6558,-106.1,53.048,0.023185,0.22411,0.21264
0,219.44,58,183,122,1.4795,2.7469,3.4352,2.5169,-391.23,195.61,0.0019771,0.38754,0.38475
1,141.67,44,166,93,1.0384,1.6851,2.2947,1.6464,-101.98,50.992,0.028061,0.1921,0.17716
0,172.22,61,181,119,1.7227,3.1796,3.9486,2.8605,-449.7,224.85,0.0028471,0.54156,0.53755
1,88.889,25,147,94,1.1175,2.023,2.556,1.9817,-113.6,56.801,0.033139,0.20374,0.18482
0,172.22,61,188,128,1.6629,3.0934,3.7651,2.8854,-428.8,214.4,0.0023396,0.41921,0.41591
1,88.889,25,144,92,1.0306,1.8437,2.4686,1.8195,-116.57,58.286,0.031379,0.21703,0.20003
1,83.333,24,142,89,1.1861,2.1424,2.6885,1.9753,-112.02,56.01,0.020135,0.23721,0.2274
1,86.111,24,146,93,1.0285,1.864,2.3348,1.668,-97.284,48.642,0.023834,0.21082,0.19846
1,86.111,23,145,93,1.0134,1.7819,2.4337,1.6482,-101.4,50.701,0.028283,0.21139,0.1971
1,86.111,24,145,93,1.0572,1.8929,2.4986,1.7413,-111.05,55.524,0.019604,0.22346,0.21355
1,83.333,23,144,92,1.0222,1.8485,2.358,1.6862,-98.252,49.126,0.021789,0.2146,0.20345
1,88.889,25,146,93,1.0723,1.9534,2.4354,1.806,-108.24,54.119,0.015661,0.23786,0.23012
1,88.889,24,144,91,0.87433,1.4976,2.14,1.3758,-89.167,44.584,0.014608,0.21503,0.20798
1,86.111,24,146,93,1.0608,1.8598,2.51,1.7523,-104.58,52.291,0.02282,0.21541,0.20381
1,83.333,24,144,92,0.95631,1.7351,2.2238,1.5467,-98.838,49.419,0.023209,0.21767,0.20592
1,83.333,24,144,91,1.1222,2.0882,2.4484,1.9264,-102.02,51.008,0.013908,0.2334,0.22652
0,86.111,25,144,91,1.1599,2.1548,2.5518,2.0118,-113.41,56.707,0.016973,0.23059,0.22233
1,88.889,24,146,94,0.94861,1.6629,2.3225,1.5805,-103.22,51.612,0.028975,0.20413,0.18884
0,166.67,59,177,119,1.6896,3.1834,3.7788,2.8143,-430.36,215.18,0.0031139,0.5514,0.547
1,83.333,23,144,92,1.0103,1.8125,2.3587,1.7859,-98.278,49.139,0.029362,0.20389,0.18835
1,138.89,43,161,90,1.1686,1.9554,2.5542,1.8321,-113.52,56.759,0.017912,0.22597,0.21703
1,88.889,24,146,94,1.0122,1.8012,2.4189,1.7078,-107.51,53.753,0.024168,0.21739,0.20528
1,88.889,25,146,93,1.1644,2.1188,2.6396,1.9754,-117.32,58.658,0.021434,0.24329,0.23248
1,144.44,44,166,93,1.1388,1.9905,2.4174,1.8381,-100.73,50.363,0.023945,0.21511,0.20324
1,88.889,24,143,91,0.96304,1.6956,2.3418,1.6185,-104.08,52.04,0.021847,0.22051,0.20972
1,88.889,24,146,93,1.1257,2.0001,2.6132,1.8896,-108.88,54.441,0.022483,0.2272,0.21583
1,88.889,26,146,93,0.97528,1.7841,2.2279,1.6415,-105.21,52.604,0.019714,0.22734,0.21744
1,88.889,24,146,94,0.8504,1.505,2.0611,1.3942,-91.604,45.802,0.023731,0.20794,0.19591
1,91.667,25,144,91,1.0812,1.9118,2.5572,1.8371,-113.65,56.826,0.021432,0.22476,0.21394
1,83.333,23,145,93,0.95221,1.7038,2.2369,1.5492,-93.203,46.601,0.023789,0.21343,0.20151
1,144.44,45,171,94,1.076,1.8751,2.2977,1.7513,-102.12,51.06,0.015665,0.23472,0.22714
0,86.111,25,175,124,1.1093,1.9933,2.5646,1.9552,-113.98,56.991,0.0158,0.24095,0.22423
1,83.333,24,146,94,0.99407,1.7905,2.3341,1.6891,-103.74,51.868,0.031194,0.2069,0.19028
1,88.889,25,147,94,1.0427,1.8835,2.3987,1.6594,-106.61,53.304,0.023987,0.21762,0.20501
1,88.889,25,147,95,0.93753,1.6895,2.228,1.6156,-105.21,52.606,0.019104,0.21728,0.20782
1,86.111,24,146,94,1.0188,1.8035,2.4524,1.7076,-109,54.498,0.024557,0.22518,0.21264
1,86.111,24,146,93,1.0062,1.8101,2.3083,1.6506,-96.181,48.09,0.023998,0.21759,0.20522
1,130.56,39,161,93,0.99657,1.6118,2.2247,1.5327,-92.696,46.348,0.019749,0.21024,0.2005
1,86.111,23,143,91,1.0693,1.8943,2.5351,1.8,-105.63,52.815,0.021098,0.21922,0.20894
1,86.111,24,146,93,1.0924,1.9733,2.4847,1.7839,-103.53,51.764,0.018394,0.22685,0.21751
0,83.333,24,174,124,1.084,2.0022,2.4372,1.8895,-108.32,54.161,0.022069,0.22207,0.19765
1,88.889,25,147,95,1.0638,1.9143,2.5208,1.8519,-119.04,59.518,0.043402,0.19244,0.166
1,86.111,24,142,90,0.96781,1.7238,2.3136,1.4916,-102.83,51.413,0.025293,0.21575,0.20259
1,83.333,24,145,93,1.0104,1.8726,2.2663,1.7763,-100.73,50.363,0.015962,0.2377,0.22988
1,80.556,23,145,94,0.87457,1.6003,2.0462,1.4817,-90.943,45.472,0.012072,0.22196,0.21591
1,91.667,25,147,94,0.8983,1.5524,2.2013,1.4433,-97.837,48.918,0.020517,0.20878,0.19838
1,88.889,24,146,94,0.97581,1.7006,2.4067,1.5882,-106.96,53.481,0.026818,0.21384,0.19998
1,83.333,24,146,94,1.0233,1.856,2.3744,1.721,-105.53,52.764,0.021427,0.23188,0.22128
1,88.889,25,147,94,1.061,1.934,2.4087,1.7605,-107.05,53.526,0.020109,0.22148,0.21128
1,86.111,24,144,92,1.0259,1.8193,2.4625,1.6978,-109.45,54.723,0.027685,0.22092,0.20693
1,88.889,25,146,93,1.0213,1.8038,2.4242,1.6527,-107.74,53.871,0.022795,0.21779,0.20601
1,83.333,24,146,94,1.0215,1.8638,2.3483,1.7334,-104.37,52.185,0.017557,0.22737,0.21872
1,88.889,24,143,90,1.0066,1.7582,2.3967,1.6208,-99.863,49.932,0.018187,0.21509,0.2061
1,80.556,23,143,92,0.95477,1.6977,2.3369,1.5967,-103.86,51.931,0.019151,0.23256,0.22316
1,83.333,24,143,91,1.0101,1.8525,2.3042,1.6833,-102.41,51.204,0.017132,0.22988,0.22117
1,88.889,25,144,91,1.014,1.8505,2.3019,1.6804,-102.31,51.154,0.021519,0.21334,0.2024
1,91.667,25,144,91,1.0593,1.8452,2.5569,1.7392,-113.64,56.819,0.022025,0.21699,0.20574
1,86.111,25,147,95,1.0063,1.8436,2.3216,1.6659,-109.63,54.817,0.014649,0.237,0.22974
1,80.556,24,144,92,1.1381,2.1308,2.4957,1.9014,-110.92,55.46,0.016361,0.23002,0.22164
1,83.333,23,137,85,0.96324,1.747,2.218,1.5621,-92.419,46.209,0.019772,0.21761,0.20774
1,86.111,24,146,93,0.94829,1.6249,2.3151,1.5206,-96.461,48.231,0.020001,0.20971,0.19962
1,86.111,25,146,94,1.0102,1.8208,2.3929,1.67,-113,56.5,0.020675,0.2179,0.20731
1,83.333,24,132,79,1.1073,2.0154,2.492,1.8441,-103.83,51.917,0.01505,0.23286,0.22513
0,188.89,47,197,147,1.0026,1.906,2.4398,1.7335,-264.31,132.16,0.0046678,0.24892,0.24144
1,88.889,25,147,94,1.0704,1.8914,2.5351,1.8563,-112.67,56.335,0.036006,0.18829,0.16824
1,86.111,24,146,94,1.0889,1.94,2.5892,1.7037,-115.08,57.538,0.02765,0.21505,0.20027
1,77.778,22,142,91,0.959,1.7268,2.2705,1.6078,-94.604,47.302,0.023546,0.21163,0.19988
1,86.111,23,145,93,0.92845,1.6385,2.2257,1.5127,-92.737,46.369,0.021969,0.19716,0.18579
1,83.333,23,142,91,0.90681,1.6119,2.2257,1.5351,-98.921,49.46,0.022374,0.21383,0.2029
1,83.333,24,141,89,0.91303,1.6369,2.1659,1.509,-96.262,48.131,0.019857,0.21554,0.20555
1,86.111,24,143,91,0.97315,1.7884,2.2163,1.6432,-98.5,49.25,0.021029,0.20905,0.1985
1,86.111,24,144,92,0.93203,1.6357,2.2796,1.57,-101.32,50.658,0.022559,0.21229,0.20091
1,83.333,23,143,91,1.1329,2.0371,2.6224,1.9036,-109.27,54.634,0.021378,0.22859,0.21828
1,86.111,24,146,94,1.0248,1.8597,2.3755,1.7093,-105.58,52.789,0.022726,0.22066,0.20919
1,86.111,24,140,88,0.88543,1.572,2.1334,1.4718,-94.818,47.409,0.021152,0.20697,0.19674
1,86.111,24,144,91,1.0499,1.8906,2.4019,1.6928,-100.08,50.04,0.016635,0.23099,0.22269
1,86.111,24,143,90,1.0996,2.0133,2.4558,1.8398,-102.33,51.163,0.022134,0.21384,0.20271
1,83.333,23,145,94,0.88459,1.5648,2.1908,1.4693,-97.367,48.683,0.023622,0.20998,0.19821
1,88.889,24,146,94,1.0149,1.8037,2.4296,1.6959,-107.98,53.991,0.018679,0.22532,0.21599
1,86.111,24,142,89,1.0657,1.9072,2.4563,1.7482,-102.35,51.173,0.020308,0.21958,0.20949
1,86.111,24,144,92,0.93472,1.6653,2.2365,1.5562,-99.4,49.7,0.019155,0.20239,0.19263
1,88.889,24,141,88,1.0723,1.8936,2.5129,1.7614,-104.7,52.352,0.019014,0.21648,0.20715
1,88.889,25,145,92,1.0167,1.8374,2.3398,1.6996,-103.99,51.996,0.014677,0.22739,0.21999
1,86.111,25,147,94,1.1005,2.0294,2.4532,1.873,-109.03,54.516,0.016207,0.2264,0.21833
1,88.889,24,144,92,0.95612,1.6782,2.3361,1.5897,-103.83,51.913,0.020072,0.21795,0.20808
1,86.111,25,145,92,1.1006,2.0021,2.5018,1.8055,-111.19,55.596,0.016538,0.22449,0.21608
1,83.333,24,144,91,0.98087,1.7793,2.2276,1.6489,-92.815,46.408,0.013264,0.2103,0.20351
1,88.889,25,147,94,0.86317,1.5083,2.0879,1.4021,-92.795,46.397,0.01586,0.19972,0.19196
0,113.89,36,188,126,1.0689,1.8961,2.3407,1.857,-110.53,55.266,0.017406,0.21021,0.19061
1,83.333,23,145,93,0.98243,1.7466,2.3262,1.7001,-96.923,48.462,0.030226,0.18572,0.16981
1,86.111,24,146,93,1.0039,1.7869,2.3351,1.5588,-97.297,48.648,0.022766,0.20185,0.18994
1,91.667,25,147,94,0.92072,1.5906,2.2558,1.4952,-100.26,50.128,0.0199,0.20955,0.19955
1,83.333,24,146,94,0.89407,1.5701,2.1878,1.4207,-97.236,48.618,0.016489,0.21353,0.20526
1,86.111,25,147,94,0.96726,1.7388,2.2459,1.5945,-99.816,49.908,0.0094709,0.23416,0.2291
0,186.11,46,196,144,1.0375,1.9532,2.4782,1.93,-247.82,123.91,0.0020158,0.25257,0.25008
1,86.111,24,146,93,1.0327,1.8006,2.4623,1.7535,-102.6,51.298,0.028373,0.19087,0.17552
1,80.556,23,143,91,0.98172,1.7549,2.3067,1.4902,-96.111,48.055,0.021317,0.20282,0.19362
1,83.333,24,144,92,0.96315,1.7865,2.1617,1.6685,-96.076,48.038,0.015984,0.21948,0.21149
1,83.333,22,144,93,0.8211,1.4722,1.9701,1.3202,-82.088,41.044,0.022461,0.19374,0.18244
1,86.111,24,144,92,0.90939,1.5881,2.2419,1.5121,-99.642,49.821,0.019534,0.2067,0.19709
1,88.889,25,147,94,1.022,1.8039,2.4276,1.6069,-107.89,53.946,0.018849,0.22452,0.21487
1,86.111,24,143,90,1.0712,1.9672,2.385,1.8137,-99.377,49.689,0.016103,0.22147,0.21341
1,86.111,24,139,87,1.0131,1.8615,2.3045,1.7005,-102.42,51.21,0.017322,0.20761,0.19891
1,88.889,25,147,95,0.87488,1.5549,2.1298,1.4338,-100.58,50.288,0.020555,0.20569,0.19521
1,80.556,22,143,92,0.84624,1.451,2.1698,1.3234,-90.406,45.203,0.019384,0.21119,0.20164
1,83.333,23,145,93,0.99782,1.7895,2.3321,1.6938,-97.172,48.586,0.018777,0.21061,0.20107
1,91.667,25,144,91,0.84998,1.485,2.0571,1.4019,-91.426,45.713,0.017018,0.20701,0.19857
1,83.333,23,145,94,0.89525,1.5943,2.1919,1.5284,-97.419,48.709,0.022689,0.21679,0.20589
1,86.111,25,144,91,1.0547,1.9187,2.4016,1.7765,-106.74,53.368,0.019601,0.22652,0.21671
1,88.889,25,144,92,0.93126,1.6916,2.1853,1.5871,-103.2,51.598,0.02124,0.21495,0.20444
1,91.667,25,144,91,0.9909,1.7238,2.4012,1.6449,-106.72,53.361,0.025559,0.20808,0.19487
1,80.556,23,142,91,0.90273,1.6362,2.1447,1.4665,-95.319,47.66,0.020416,0.21834,0.20826
1,86.111,25,147,94,0.97594,1.7968,2.1903,1.6319,-97.349,48.674,0.01437,0.22097,0.21372
1,80.556,23,145,93,1.0676,1.964,2.3959,1.8037,-99.829,49.914,0.019382,0.22518,0.21563
1,88.889,24,144,92,0.99553,1.7752,2.373,1.6949,-105.47,52.734,0.020019,0.21579,0.20582
1,88.889,25,146,94,0.99329,1.7775,2.3816,1.6888,-112.47,56.233,0.025422,0.22037,0.20732
1,86.111,24,143,90,1.0617,1.8947,2.456,1.7664,-102.33,51.167,0.019912,0.22125,0.21117
1,86.111,24,146,94,0.97258,1.7437,2.3017,1.6488,-102.3,51.149,0.018968,0.21802,0.20883
1,86.111,24,146,93,1.081,1.902,2.5446,1.8101,-106.03,53.013,0.025061,0.21225,0.1995
1,86.111,24,143,90,1.0119,1.7854,2.3794,1.6455,-99.142,49.571,0.019917,0.21479,0.20489
1,86.111,24,146,93,0.99064,1.7766,2.2829,1.6279,-95.122,47.561,0.01605,0.21244,0.2046
1,86.111,24,146,94,0.97449,1.7299,2.3405,1.655,-104.02,52.011,0.023706,0.21133,0.1995
1,83.333,24,146,94,0.93546,1.6721,2.2272,1.513,-98.985,49.492,0.02077,0.21568,0.20533
1,88.889,26,143,89,1.0607,1.9277,2.3916,1.7887,-106.29,53.147,0.01557,0.2227,0.21492
1,86.111,24,143,91,0.94972,1.6653,2.3243,1.5522,-103.3,51.652,0.019659,0.21264,0.20282
1,88.889,25,146,93,1.0313,1.8301,2.4319,1.6892,-108.08,54.042,0.017802,0.22335,0.21432
1,83.333,24,142,89,1.0492,1.8988,2.3847,1.7343,-99.363,49.681,0.012762,0.22456,0.21804
1,86.111,24,143,90,0.9252,1.6028,2.2309,1.5165,-92.954,46.477,0.018897,0.1991,0.18949
1,83.333,24,146,94,1.0107,1.795,2.4223,1.7307,-107.66,53.828,0.021019,0.21227,0.20172
1,86.111,24,143,90,1.0821,1.9504,2.4694,1.82,-102.89,51.447,0.019331,0.21607,0.20636
1,147.22,46,168,94,0.95772,1.6147,2.0714,1.4966,-92.061,46.03,0.008926,0.21815,0.21364
0,91.667,26,176,125,0.88909,1.5491,2.1824,1.4897,-103.06,51.529,0.0074064,0.2233,0.22076
1,86.111,24,146,94,1.0275,1.8406,2.4296,1.7093,-107.98,53.991,0.029399,0.19689,0.18048
1,147.22,46,168,95,0.95407,1.5587,2.1087,1.4274,-99.577,49.788,0.018237,0.20091,0.1914
1,86.111,24,146,94,0.99866,1.7569,2.4279,1.6888,-107.9,53.952,0.020104,0.22016,0.21029
1,86.111,24,140,88,0.89843,1.5827,2.1882,1.4157,-97.254,48.627,0.01612,0.22001,0.21189
1,86.111,25,145,92,1.1228,2.0543,2.5296,1.9159,-112.42,56.212,0.018018,0.22626,0.21723
1,83.333,23,145,94,0.82706,1.4559,2.0695,1.3322,-91.977,45.989,0.020721,0.20608,0.19586
1,88.889,24,146,94,0.98949,1.7448,2.3985,1.6232,-106.6,53.299,0.022728,0.21949,0.20779
1,86.111,25,144,91,1.0377,1.8819,2.3744,1.6942,-105.53,52.765,0.017553,0.22341,0.21453
1,105.56,31,156,92,1.0222,1.8137,2.273,1.6593,-101.02,50.511,0.017421,0.21521,0.20658
1,119.44,36,158,94,1.03,1.7048,2.334,1.6029,-103.73,51.866,0.021436,0.22138,0.21103
1,88.889,25,142,89,1.0105,1.7975,2.377,1.6311,-105.64,52.821,0.015075,0.22963,0.22204
1,83.333,24,146,94,0.95003,1.736,2.1854,1.5661,-97.127,48.564,0.017797,0.22289,0.21401
1,83.333,25,147,94,0.99091,1.8263,2.2195,1.702,-98.643,49.321,0.010589,0.23631,0.23106
1,150,46,167,93,1.079,1.7397,2.3752,1.6706,-105.57,52.783,0.015502,0.21846,0.21086
1,91.667,26,146,92,1.098,1.9454,2.5533,1.8264,-113.48,56.741,0.022029,0.22313,0.21189
1,80.556,23,141,90,0.91259,1.6644,2.1437,1.4748,-95.274,47.637,0.025012,0.21119,0.19836
1,88.889,25,147,95,0.99287,1.821,2.2875,1.72,-108.02,54.01,0.011877,0.23339,0.22752
1,133.33,40,162,94,0.93998,1.525,2.111,1.4246,-93.824,46.912,0.015855,0.22184,0.21453
1,86.111,24,144,92,1.014,1.8281,2.3754,1.6794,-105.57,52.787,0.023452,0.21652,0.2046
1,88.889,25,145,92,0.95267,1.7128,2.2127,1.5229,-98.341,49.171,0.014145,0.22483,0.21756
1,83.333,23,145,93,0.98868,1.791,2.2782,1.6575,-94.924,47.462,0.021415,0.22221,0.21192
1,88.889,25,146,94,1.0201,1.815,2.4655,1.7362,-116.43,58.214,0.020105,0.2195,0.20936
1,86.111,25,147,94,1.2294,2.2536,2.7508,2.0829,-122.26,61.128,0.019537,0.24361,0.23392
1,86.111,25,144,91,1.0967,2.0389,2.4157,1.8306,-107.36,53.682,0.015414,0.21725,0.2092
1,197.22,50,172,119,1.0539,2.0245,2.4444,1.8843,-278.4,139.2,0.007977,0.24962,0.2455
1,88.889,25,144,92,0.8818,1.5764,2.1267,1.4652,-100.43,50.214,0.013622,0.21625,0.20941
1,86.111,24,143,91,0.98253,1.731,2.3852,1.6496,-106.01,53.005,0.020224,0.22469,0.21467
1,86.111,25,147,94,1.046,1.9253,2.3428,1.7236,-104.13,52.063,0.013689,0.23053,0.22352
1,86.111,25,147,94,1.0812,1.9944,2.4109,1.8785,-107.15,53.575,0.0111,0.23431,0.2288
1,88.889,25,141,88,1.0143,1.8141,2.3681,1.6704,-105.25,52.624,0.015161,0.23213,0.22448
1,86.111,24,145,93,1.0282,1.8075,2.4993,1.725,-111.08,55.54,0.019328,0.2206,0.21115
1,88.889,25,147,94,1.0981,1.932,2.6131,1.8146,-116.14,58.069,0.024482,0.21968,0.20697
1,80.556,23,144,92,1.0604,1.8998,2.4754,1.7652,-103.14,51.57,0.024634,0.22052,0.20812
1,91.667,25,147,94,0.99691,1.7721,2.348,1.679,-104.36,52.178,0.016029,0.21547,0.20752
1,119.44,35,156,93,1.0859,1.7785,2.4904,1.723,-110.69,55.343,0.020087,0.21992,0.20989
1,83.333,24,146,94,0.98728,1.7615,2.3522,1.6187,-104.54,52.272,0.018339,0.22816,0.21911
1,86.111,25,147,94,1.0815,1.9805,2.4369,1.7943,-108.31,54.154,0.020329,0.22274,0.21239
1,86.111,23,143,91,0.98973,1.7328,2.3929,1.6216,-99.703,49.851,0.018503,0.21967,0.21063
1,86.111,25,147,94,1.1044,1.9886,2.5465,1.8827,-113.18,56.588,0.018445,0.22872,0.21936
1,83.333,23,144,92,1.0767,1.9767,2.4227,1.8321,-100.94,50.472,0.019655,0.23076,0.22108
1,86.111,24,142,90,0.95395,1.7411,2.1982,1.6023,-97.698,48.849,0.021751,0.21382,0.20294
1,88.889,24,141,89,0.96508,1.6883,2.3683,1.607,-105.26,52.63,0.021867,0.22598,0.21539
1,86.111,25,145,93,1.0337,1.8554,2.4625,1.7252,-116.28,58.142,0.019243,0.2311,0.22157
1,88.889,25,146,93,0.98406,1.7519,2.3141,1.6352,-102.85,51.425,0.017467,0.22871,0.21994
1,91.667,25,144,91,1.0097,1.7746,2.4131,1.7193,-107.25,53.625,0.02116,0.22605,0.21555
1,86.111,24,144,92,1.0695,1.9053,2.5453,1.8279,-113.13,56.563,0.023159,0.21924,0.20792
1,86.111,24,146,94,0.96139,1.7028,2.3178,1.5717,-103.01,51.507,0.021103,0.22665,0.21597
1,86.111,25,147,94,0.92239,1.6656,2.1316,1.5414,-94.736,47.368,0.016865,0.23102,0.22295
1,113.89,33,148,87,0.95511,1.5901,2.2007,1.5127,-97.809,48.904,0.02023,0.21321,0.20316
1,88.889,25,147,94,1.1211,2.0042,2.6091,1.896,-115.96,57.98,0.021805,0.22613,0.2152
1,83.333,24,146,93,1.1097,1.9915,2.5443,1.8412,-106.01,53.006,0.022705,0.22503,0.2139
1,88.889,25,147,94,0.98624,1.7754,2.2841,1.6474,-101.52,50.758,0.021248,0.21397,0.20322
1,88.889,25,143,90,1.0879,1.9297,2.5615,1.8407,-113.84,56.921,0.023814,0.22354,0.21173
1,91.667,25,144,91,1.0816,1.937,2.5149,1.8054,-111.77,55.887,0.022317,0.21901,0.2076
1,83.333,23,141,89,0.89847,1.6118,2.1072,1.4896,-87.801,43.901,0.01718,0.21109,0.20278
1,88.889,24,144,92,0.88241,1.5606,2.1383,1.426,-95.034,47.517,0.0165,0.20683,0.19855
1,86.111,23,141,89,0.98323,1.7273,2.3669,1.6506,-98.619,49.31,0.023402,0.20858,0.19707
1,86.111,24,145,92,1.0661,1.8906,2.4858,1.7712,-103.58,51.788,0.018772,0.21931,0.20987
1,113.89,35,153,92,1.0448,1.826,2.3254,1.7294,-109.81,54.906,0.013244,0.22565,0.21922
1,91.667,25,145,92,1.0053,1.7547,2.4247,1.6689,-107.76,53.882,0.021898,0.2103,0.19925
1,86.111,24,146,93,1.1199,2.0139,2.5599,1.8466,-106.66,53.33,0.016515,0.23023,0.22201
1,86.111,25,147,94,1.0616,1.9316,2.416,1.791,-107.38,53.69,0.016519,0.22541,0.217
1,88.889,24,143,90,0.95128,1.643,2.3003,1.5247,-95.847,47.923,0.017928,0.20496,0.19612
1,91.667,25,139,86,1.1033,1.9496,2.6099,1.8585,-115.99,57.997,0.02646,0.22083,0.20726
1,86.111,24,145,93,1.0061,1.8021,2.3811,1.7111,-105.83,52.913,0.015804,0.22191,0.21404
0,80.556,21,143,92,1.268,2.3241,2.834,1.9002,-110.21,55.105,0.050861,0.21544,0.18706
1,91.667,26,145,92,1.0179,1.7991,2.4403,1.7129,-115.24,57.618,0.020388,0.2117,0.20123
1,86.111,25,143,90,1.0428,1.8417,2.4734,1.7328,-109.93,54.964,0.02167,0.21965,0.20873
1,86.111,25,144,91,1.0842,1.963,2.4825,1.8395,-110.33,55.167,0.017425,0.22978,0.22104
1,86.111,25,150,97,0.96807,1.7848,2.1689,1.6127,-96.397,48.199,0.020158,0.20056,0.19043
1,86.111,24,144,92,0.95902,1.6842,2.3411,1.6207,-104.05,52.025,0.018564,0.20431,0.19511
1,86.111,24,146,94,0.90067,1.5631,2.2406,1.4129,-99.584,49.792,0.020458,0.21658,0.20645
1,83.333,23,144,92,1.0488,1.8876,2.4339,1.771,-101.41,50.706,0.021313,0.21087,0.20021
1,119.44,35,155,91,0.98938,1.6636,2.2057,1.5198,-91.905,45.953,0.020154,0.20641,0.19616
1,91.667,26,146,93,1.0464,1.8467,2.5115,1.7722,-118.6,59.3,0.019224,0.21461,0.2049
1,88.889,25,143,91,0.97481,1.7413,2.3457,1.5962,-110.77,55.385,0.020137,0.22693,0.21682
1,86.111,24,146,94,1.0761,1.9722,2.4507,1.8376,-108.92,54.461,0.019023,0.22419,0.21449
0,83.333,24,174,123,0.94598,1.6944,2.1868,1.6279,-91.115,45.557,0.016934,0.20885,0.19009
1,147.22,46,168,94,1.1584,1.8777,2.5438,1.8325,-113.06,56.529,0.034768,0.19225,0.17239
1,86.111,24,144,92,0.94841,1.6646,2.318,1.4739,-103.02,51.51,0.022676,0.21951,0.20785
1,86.111,24,141,88,1.0375,1.8643,2.381,1.7235,-99.207,49.604,0.016781,0.22467,0.21616
1,194.44,49,171,119,0.97721,1.8753,2.3166,1.7444,-263.83,131.92,0.011982,0.2256,0.2195
1,83.333,24,143,91,0.98676,1.8257,2.2218,1.7004,-98.748,49.374,0.014046,0.2265,0.21968
1,141.67,43,168,91,1.1031,1.8602,2.3837,1.7416,-99.321,49.66,0.023227,0.19805,0.18627
0,225,80,200,119,1.515,2.7008,3.3674,2.448,-383.51,191.76,0.0026561,0.5326,0.52885
1,91.667,26,148,95,1.1223,2.0395,2.576,1.9682,-121.65,60.823,0.031855,0.21147,0.19372
1,86.111,23,145,93,0.93298,1.6584,2.2138,1.4806,-92.243,46.122,0.026799,0.20075,0.18705
1,91.667,26,144,90,1.1753,2.093,2.7097,1.9989,-120.43,60.216,0.024074,0.22937,0.21728
1,86.111,24,146,94,1.0159,1.8243,2.3943,1.6716,-106.41,53.206,0.019236,0.21621,0.20646
1,88.889,25,145,91,1.0522,1.9157,2.3486,1.7322,-97.859,48.929,0.016805,0.21692,0.20858
1,86.111,24,144,91,1.0227,1.7858,2.4351,1.6702,-101.46,50.732,0.0215,0.21599,0.20539
1,88.889,25,144,91,1.0989,1.9854,2.5226,1.8593,-112.12,56.058,0.019282,0.22202,0.2124
1,83.333,25,147,94,0.99479,1.8247,2.2432,1.658,-99.697,49.848,0.015939,0.23046,0.2226
1,102.78,29,152,93,0.94899,1.5941,2.2084,1.4747,-92.017,46.009,0.01906,0.19867,0.18899
1,91.667,25,147,94,1.074,1.9122,2.5177,1.809,-111.9,55.949,0.018837,0.21253,0.20321
1,86.111,25,147,94,1.0644,1.9269,2.4394,1.782,-108.42,54.209,0.018213,0.22151,0.21234
0,183.33,45,170,116,1.2654,2.447,2.7672,2.2367,-269.04,134.52,0.0048582,0.26287,0.25992
1,91.667,25,142,89,0.87979,1.5228,2.1529,1.4321,-95.685,47.842,0.022901,0.1968,0.18491
0,186.11,66,193,127,1.7538,3.2095,3.9676,2.9042,-451.87,225.93,0.0030094,0.47614,0.47189
1,88.889,26,148,94,1.1209,2.043,2.5135,2.0097,-111.71,55.856,0.025275,0.20653,0.1933
0,177.78,63,186,122,1.6256,3.0063,3.6786,2.8,-418.95,209.47,0.0024208,0.44283,0.43941
1,86.111,23,142,90,1.0055,1.769,2.4135,1.7259,-100.56,50.282,0.028489,0.19858,0.18394
0,211.11,55,177,119,1.4807,2.8245,3.3124,2.5944,-377.24,188.62,0.0033874,0.30832,0.3053
1,83.333,24,145,93,0.9543,1.7297,2.2227,1.6554,-98.786,49.393,0.021752,0.20394,0.19283
0,222.22,59,185,124,1.4798,2.7862,3.3234,2.6306,-378.5,189.25,0.0019719,0.36549,0.36271
1,83.333,23,142,91,0.96672,1.7187,2.3653,1.6806,-105.12,52.562,0.028513,0.21564,0.2013
0,205.56,53,175,119,1.4731,2.8414,3.2415,2.6088,-369.17,184.58,0.0046441,0.30528,0.30182
1,136.11,43,168,93,1.0691,1.8366,2.2926,1.7301,-95.525,47.762,0.020891,0.22003,0.20964
0,161.11,57,185,125,1.5413,2.9444,3.3936,2.7499,-386.49,193.25,0.0018017,0.35735,0.35481
1,88.889,24,146,94,0.97366,1.7529,2.2898,1.6539,-101.77,50.884,0.03011,0.20619,0.19009
0,225,60,180,120,1.7114,3.2073,3.8435,2.9878,-437.73,218.87,0.0022613,0.40985,0.40666
1,144.44,45,169,91,1.0833,1.7661,2.3606,1.7391,-98.358,49.179,0.028963,0.19634,0.18148
0,194.44,69,185,119,1.7664,3.2681,3.8961,2.8715,-443.72,221.86,0.0033338,0.51734,0.51264
1,152.78,48,174,94,1.159,2.031,2.4538,2.0192,-109.06,54.53,0.034345,0.20823,0.1883
0,180.56,64,178,113,1.6567,3.0291,3.7917,2.8718,-431.83,215.91,0.0029183,0.48687,0.48275
1,133.33,41,161,91,1.2186,2.0603,2.643,2.0442,-110.13,55.063,0.037108,0.2083,0.18823
0,194.44,49,171,119,1.31,2.5321,2.9732,2.3279,-338.61,169.31,0.010652,0.29061,0.28521
1,83.333,24,142,89,1.1243,2.0896,2.4573,1.9823,-102.39,51.194,0.022394,0.2182,0.20708
0,211.11,55,181,123,1.4341,2.7492,3.1719,2.5704,-361.24,180.62,0.002645,0.31785,0.31516
1,88.889,25,147,94,1.0911,1.9454,2.5514,1.8433,-113.4,56.698,0.034422,0.20759,0.18826
0,213.89,56,181,123,1.5257,2.8882,3.4493,2.6681,-392.84,196.42,0.0017792,0.34976,0.34725
1,91.667,26,148,94,1.0024,1.7742,2.3403,1.6998,-104.01,52.006,0.029475,0.19381,0.17754
0,161.11,57,177,119,1.6062,3.0495,3.5804,2.7006,-407.77,203.88,0.0026899,0.52378,0.51999
1,86.111,24,142,90,0.97148,1.775,2.2332,1.7484,-99.254,49.627,0.037108,0.18493,0.16221
0,158.33,56,176,119,1.4473,2.7116,3.3526,2.5023,-381.83,190.91,0.0025169,0.47327,0.46972
1,86.111,24,146,94,0.86274,1.4965,2.1506,1.4445,-95.583,47.792,0.036147,0.18457,0.16469
0,191.67,68,189,123,1.7259,3.1033,3.9568,2.7885,-450.64,225.32,0.0031194,0.49575,0.49135
1,130.56,40,153,90,0.98651,1.6407,2.1878,1.6138,-97.237,48.619,0.026288,0.20195,0.18819
0,222.22,59,180,120,1.5088,2.8387,3.3913,2.6028,-386.23,193.12,0.0018925,0.36685,0.36418
1,86.111,24,146,94,0.96823,1.7038,2.3559,1.6241,-104.71,52.353,0.025257,0.20697,0.194
0,194.44,49,175,123,1.1687,2.2648,2.6397,2.0031,-300.64,150.32,0.0083031,0.26161,0.25707
1,80.556,24,142,89,1.1077,2.0605,2.4193,1.892,-100.8,50.402,0.014714,0.22045,0.21302
0,191.67,48,168,117,1.1667,2.2418,2.6731,2.0726,-289.58,144.79,0.0086475,0.24657,0.24209
1,100,29,148,91,0.86871,1.5243,2.0237,1.4704,-95.566,47.783,0.013953,0.20684,0.20002
1,88.889,25,146,94,0.96379,1.7299,2.3027,1.6315,-108.74,54.37,0.023366,0.19834,0.18614
1,86.111,24,144,92,0.95192,1.7,2.268,1.5382,-100.8,50.401,0.023128,0.20574,0.19383
0,180.56,64,186,121,1.6213,2.9668,3.7072,2.7181,-422.21,211.11,0.0024722,0.43726,0.43377
1,83.333,23,145,93,0.97893,1.6856,2.4211,1.6358,-100.88,50.439,0.024813,0.20146,0.18889
0,219.44,58,185,124,1.5213,2.8612,3.4421,2.5796,-392.02,196.01,0.0019313,0.35925,0.35652
1,83.333,24,142,90,0.96782,1.7387,2.2839,1.6857,-101.51,50.754,0.028107,0.19334,0.17806
0,161.11,57,177,119,1.3846,2.5489,3.3005,2.3355,-375.89,187.94,0.0025527,0.4753,0.4717
1,88.889,23,145,93,1.038,1.802,2.5335,1.7606,-105.56,52.782,0.036159,0.18318,0.16223
0,186.11,66,180,120,1.6064,2.8388,3.804,2.5036,-433.23,216.61,0.0029764,0.50061,0.49641
1,83.333,24,146,94,1.0521,1.905,2.4444,1.8935,-108.64,54.32,0.032516,0.19205,0.17256
0,241.67,66,192,125,1.5141,2.6861,3.5703,2.3915,-406.61,203.31,0.0026775,0.46301,0.45924
1,88.889,24,143,91,0.95511,1.6687,2.3492,1.6131,-104.41,52.205,0.030768,0.19266,0.17574
0,191.67,48,170,118,1.1873,2.2903,2.7216,1.9502,-302.4,151.2,0.0064256,0.2715,0.26771
1,83.333,24,146,94,0.98167,1.8121,2.219,1.6847,-98.621,49.311,0.018963,0.21763,0.20812
0,213.89,56,183,124,1.3324,2.507,3.0633,2.4102,-348.88,174.44,0.0015927,0.30966,0.30741
1,91.667,25,146,93,1.0367,1.7994,2.5159,1.7574,-111.82,55.909,0.025819,0.21013,0.19659
0,194.44,49,172,120,1.178,2.268,2.7339,2.0671,-311.36,155.68,0.0046251,0.25567,0.25262
1,86.111,25,147,95,0.91658,1.6401,2.2045,1.5613,-104.1,52.052,0.019584,0.2087,0.19866
0,163.89,58,184,126,1.5671,2.9272,3.5914,2.6812,-409.03,204.51,0.0019955,0.38943,0.38662
1,86.111,24,146,94,0.96198,1.7332,2.2608,1.6389,-100.48,50.239,0.027981,0.20359,0.18868
0,186.11,66,186,119,1.5305,2.7348,3.5764,2.428,-407.32,203.66,0.0026831,0.48857,0.48479
1,83.333,23,145,94,0.9814,1.7359,2.4196,1.7252,-107.54,53.769,0.033025,0.19923,0.18162
0,186.11,66,184,119,1.7543,3.1471,4.0725,2.8898,-463.82,231.91,0.0030567,0.50244,0.49813
1,86.111,24,142,90,0.9967,1.8038,2.323,1.7266,-103.24,51.622,0.034509,0.19224,0.17291
0,166.67,59,179,119,1.6192,3.0555,3.6138,2.619,-411.57,205.79,0.0026962,0.53917,0.53537
1,80.556,23,144,93,0.94243,1.6765,2.3062,1.6219,-102.5,51.25,0.026756,0.21034,0.19658
1,197.22,50,172,119,1.068,2.0518,2.4754,1.8177,-281.92,140.96,0.012346,0.23472,0.22827
1,80.556,23,145,93,1.0801,1.9723,2.4499,1.8033,-102.08,51.039,0.022118,0.2175,0.2063
1,86.111,24,146,94,0.94583,1.6702,2.2917,1.5315,-101.86,50.928,0.021656,0.22127,0.2105
1,86.111,25,146,93,1.1481,2.0973,2.5897,1.9643,-115.1,57.548,0.020402,0.22117,0.21086
0,200,51,173,119,1.3421,2.6054,2.9406,2.4081,-334.9,167.45,0.0041732,0.27614,0.27331
1,86.111,24,144,92,1.0094,1.7929,2.4188,1.6777,-107.5,53.75,0.02354,0.22243,0.21067
0,88.889,26,148,94,1.1556,2.1433,2.5292,1.9677,-112.41,56.204,0.016225,0.23143,0.22332
1,86.111,23,141,89,0.98894,1.7163,2.4194,1.6221,-100.81,50.405,0.024035,0.2064,0.19442
0,211.11,55,179,121,1.3381,2.5056,3.1376,2.2752,-357.34,178.67,0.0017173,0.32097,0.31855
1,88.889,25,145,92,1.0493,1.8908,2.422,1.8191,-107.65,53.823,0.026905,0.21685,0.20283
0,158.33,56,176,119,1.4227,2.6348,3.3805,2.4205,-385,192.5,0.0025212,0.50321,0.49965
1,91.667,24,153,101,0.99749,1.7421,2.4506,1.696,-108.92,54.458,0.045475,0.18799,0.15788
0,166.67,59,179,119,1.5835,2.8694,3.8049,2.6408,-433.33,216.67,0.0026888,0.53071,0.52691
1,86.111,25,147,95,1.0575,1.9171,2.4767,1.8674,-116.95,58.477,0.039863,0.19865,0.17302
0,158.33,56,176,119,1.4043,2.6029,3.3318,2.374,-379.46,189.73,0.0025111,0.50081,0.49727
1,91.667,25,144,91,0.98,1.6801,2.4198,1.6135,-107.55,53.773,0.033507,0.20189,0.18325
0,211.11,55,177,119,1.4206,2.6953,3.2239,2.3737,-367.16,183.58,0.0015406,0.32737,0.3252
1,88.889,25,143,90,0.99064,1.7612,2.3333,1.6733,-103.7,51.851,0.021227,0.21966,0.20887
0,255.56,71,193,118,1.1205,2.0995,2.4181,1.911,-268.68,134.34,0.006991,0.24041,0.23677
1,88.889,24,143,91,0.98407,1.7124,2.4315,1.649,-108.07,54.033,0.023,0.22232,0.21058
0,86.111,25,144,91,1.1701,2.1168,2.6737,1.977,-118.83,59.417,0.015484,0.23936,0.23156
1,86.111,25,147,94,0.99892,1.7997,2.3099,1.6338,-102.66,51.331,0.017966,0.222,0.21278
0,191.67,48,170,118,1.1663,2.2442,2.7036,2.0614,-300.4,150.2,0.0086019,0.24907,0.24452
1,86.111,23,141,89,0.89958,1.5343,2.2589,1.4514,-94.122,47.061,0.017879,0.21222,0.20343
0,208.33,54,178,121,1.405,2.6649,3.2182,2.4562,-366.51,183.26,0.0017232,0.31631,0.31388
1,80.556,22,144,92,0.97239,1.7021,2.3229,1.6221,-90.335,45.167,0.025867,0.19746,0.18396
0,186.11,66,192,125,1.7438,3.1071,4.0833,2.861,-465.04,232.52,0.0030095,0.50831,0.50407
1,88.889,24,144,92,1.0504,1.8528,2.5386,1.8282,-112.83,56.413,0.030007,0.19708,0.18058
0,172.22,61,174,119,1.7118,3.1825,3.8777,2.7399,-441.62,220.81,0.0029441,0.54979,0.54563
1,86.111,25,144,91,1.184,2.165,2.6632,2.1287,-118.36,59.182,0.029518,0.21593,0.20016
0,169.44,60,176,118,1.6523,3.0712,3.7683,2.8464,-429.17,214.58,0.0023716,0.43844,0.43509
1,83.333,23,142,91,1.0232,1.8132,2.5096,1.7926,-111.54,55.769,0.027356,0.22766,0.21373
1,88.889,25,145,92,1.0727,1.9219,2.4932,1.7208,-110.81,55.404,0.015242,0.23625,0.22859
1,88.889,25,147,94,1.1036,2.0176,2.4905,1.8707,-110.69,55.345,0.017271,0.22702,0.21833
1,88.889,25,146,93,1.0798,1.9553,2.4726,1.7869,-109.89,54.946,0.016322,0.23622,0.22811
1,86.111,24,144,92,1.06,1.8952,2.5099,1.7843,-111.55,55.776,0.020973,0.22426,0.21386
1,88.889,24,144,91,1.1642,2.0401,2.746,1.919,-114.42,57.209,0.028372,0.22603,0.21142
1,86.111,24,140,87,1.1963,2.1493,2.7297,1.9975,-113.74,56.869,0.026784,0.22349,0.20968
0,230.56,62,184,121,1.7729,3.243,4.0957,2.9786,-466.45,233.22,0.0025705,0.47083,0.46721
1,88.889,25,146,93,1.0887,1.9123,2.5969,1.8592,-115.42,57.709,0.034917,0.2008,0.18044
0,152.78,54,174,119,1.4994,2.7926,3.5866,2.5338,-408.48,204.24,0.0027553,0.56336,0.55947
1,88.889,25,147,94,1.1011,1.9718,2.5582,1.9356,-113.7,56.848,0.03393,0.20505,0.18584
1,86.111,24,144,92,0.90832,1.6068,2.1982,1.4451,-97.7,48.85,0.01636,0.21612,0.20792
1,88.889,24,146,95,0.92825,1.6452,2.317,1.5472,-109.41,54.706,0.024021,0.22175,0.20951
1,86.111,24,143,91,0.98034,1.7629,2.3089,1.5829,-102.62,51.309,0.019902,0.22392,0.21391
1,83.333,24,142,90,0.98862,1.7967,2.29,1.6406,-101.78,50.888,0.015661,0.22795,0.21995
1,88.889,24,139,87,0.90442,1.5679,2.2531,1.4031,-100.14,50.068,0.021423,0.21351,0.20264
1,86.111,24,142,90,1.0959,1.9539,2.6024,1.8566,-115.66,57.83,0.023035,0.22181,0.21014
1,88.889,25,147,94,0.99527,1.7708,2.3414,1.6017,-104.06,52.031,0.020721,0.2175,0.20678
1,86.111,25,147,94,0.99041,1.7721,2.3127,1.6622,-102.79,51.393,0.015161,0.21532,0.20768
0,86.111,24,174,124,0.90035,1.5877,2.1895,1.5027,-97.311,48.655,0.019446,0.21133,0.20177
1,83.333,24,143,91,0.93102,1.6762,2.1931,1.5594,-97.47,48.735,0.039489,0.17492,0.14968
0,211.11,75,192,119,1.4631,2.6133,3.2938,2.2739,-375.12,187.56,0.0025715,0.45647,0.45284
1,83.333,23,145,94,0.99502,1.7688,2.4317,1.7047,-108.08,54.038,0.038392,0.19529,0.17368
1,86.111,25,146,93,1.0419,1.8844,2.393,1.6707,-106.36,53.178,0.016367,0.21692,0.20849
1,83.333,23,142,90,0.99523,1.7788,2.3376,1.639,-97.4,48.7,0.017986,0.21422,0.20547
0,219.44,58,179,119,1.3528,2.5171,3.133,2.3362,-356.81,178.41,0.0018069,0.3574,0.35485
1,88.889,24,146,94,0.93457,1.6171,2.3318,1.5444,-103.64,51.819,0.026767,0.20975,0.1962
0,197.22,50,172,119,1.2797,2.4609,2.9338,2.2193,-334.13,167.06,0.0017996,0.28518,0.283
1,88.889,25,147,93,1.1282,2.0546,2.5112,1.8687,-104.63,52.317,0.026911,0.20697,0.19261
0,180.56,64,184,119,1.6925,3.1204,3.8266,2.8036,-435.81,217.91,0.0025775,0.47557,0.47194
1,88.889,25,145,92,1.0835,1.9,2.5908,1.8546,-115.15,57.574,0.026972,0.21884,0.20492
0,88.889,26,147,94,1.0283,1.8804,2.3461,1.6993,-110.79,55.395,0.010847,0.24013,0.23453
1,94.444,26,146,92,1.0076,1.7708,2.3725,1.668,-105.44,52.722,0.017769,0.21553,0.20659
0,88.889,25,143,90,1.1637,2.0834,2.6983,1.9461,-119.93,59.963,0.020849,0.22769,0.21704
1,86.111,25,144,92,0.98048,1.7908,2.2758,1.6437,-107.47,53.734,0.018028,0.21907,0.20991
0,194.44,49,171,118,1.1837,2.2873,2.6656,2.0476,-296.18,148.09,0.0077124,0.25932,0.25521
1,83.333,23,142,90,1.0569,1.8734,2.5051,1.7765,-104.38,52.189,0.0271,0.20769,0.19372
0,238.89,65,188,123,1.7165,3.1163,3.9445,2.7901,-449.23,224.62,0.0029182,0.49842,0.4943
1,86.111,24,145,92,1.0943,1.953,2.5287,1.9171,-105.36,52.682,0.033507,0.1966,0.17789
0,175,62,184,121,1.6285,3.0061,3.715,2.7448,-423.1,211.55,0.0024114,0.45365,0.45025
1,88.889,25,145,92,1.1289,1.9834,2.688,1.9471,-119.47,59.733,0.030637,0.20846,0.19187
0,197.22,50,174,121,1.3028,2.5094,2.9665,2.2581,-337.85,168.93,0.0064632,0.27438,0.27066
1,88.889,26,146,92,1.0973,2.0261,2.4206,1.8471,-107.58,53.792,0.016524,0.22443,0.21608
0,197.22,50,172,119,1.2001,2.3069,2.7635,2.094,-314.73,157.37,0.0013107,0.28614,0.28435
1,88.889,24,141,89,0.94903,1.683,2.2849,1.5726,-101.55,50.775,0.024449,0.20348,0.19079
0,172.22,61,183,119,1.7133,3.1734,3.905,2.9112,-444.73,222.37,0.0025636,0.43807,0.43445
1,80.556,24,144,92,1.0733,2.0001,2.3791,1.9464,-105.74,52.868,0.023467,0.21499,0.20288
0,205.56,53,175,119,1.3416,2.5605,3.0525,2.299,-347.65,173.82,0.0014702,0.30455,0.30248
1,88.889,25,145,92,1.1521,2.112,2.5854,2.0207,-114.91,57.453,0.020369,0.22135,0.21084
0,180.56,64,188,121,1.6427,3.0122,3.7448,2.7074,-426.49,213.24,0.0026285,0.459,0.45529
1,86.111,24,140,88,1.0867,1.9218,2.6128,1.8645,-116.12,58.062,0.033643,0.20626,0.18745
0,188.89,47,169,117,1.1039,2.1197,2.5756,1.9283,-279.02,139.51,0.011035,0.2308,0.22498
1,80.556,23,164,112,0.93095,1.6832,2.1561,1.5307,-89.839,44.92,0.023988,0.19182,0.17933
0,197.22,50,173,120,1.1986,2.3146,2.7129,2.12,-308.97,154.48,0.0079646,0.24082,0.23659
1,83.333,23,144,93,0.87884,1.5612,2.162,1.452,-96.087,48.044,0.021842,0.20864,0.19773
0,197.22,50,172,119,1.2064,2.3212,2.7679,2.0705,-315.23,157.61,0.0080208,0.24373,0.23922
1,86.111,24,143,91,0.94596,1.7342,2.1651,1.6017,-96.227,48.114,0.022147,0.19421,0.1828
0,183.33,65,185,119,1.605,2.9492,3.6317,2.6262,-413.61,206.8,0.0025813,0.44666,0.44302
1,86.111,24,144,92,1.0633,1.8906,2.5387,1.8429,-112.83,56.415,0.025365,0.20739,0.19417
0,197.22,50,173,119,1.2592,2.4172,2.8648,2.1342,-318.32,159.16,0.0013443,0.28296,0.28107
1,86.111,24,146,94,0.88607,1.6265,2.0286,1.5209,-90.159,45.08,0.026853,0.18871,0.17444
0,177.78,63,183,119,1.59,2.9447,3.591,2.6591,-408.98,204.49,0.0023724,0.42704,0.42369
1,88.889,25,146,93,1.0362,1.8604,2.4045,1.7557,-106.87,53.433,0.026433,0.19431,0.17995
0,197.22,50,172,119,1.281,2.461,2.9473,2.2159,-335.67,167.83,0.003311,0.26532,0.26266
1,80.556,23,142,90,0.92639,1.6678,2.1595,1.5395,-89.977,44.989,0.021342,0.1954,0.1846
0,200,51,175,119,1.2893,2.4504,2.9504,2.2481,-319.63,159.82,0.0016804,0.28563,0.28344
1,86.111,24,143,91,1.0062,1.7757,2.4343,1.6817,-108.19,54.094,0.021136,0.21891,0.20829
0,197.22,50,172,119,1.2771,2.477,2.8355,2.2217,-322.93,161.46,0.0063379,0.25438,0.25051
1,86.111,24,145,93,0.96452,1.7083,2.3251,1.6229,-103.34,51.67,0.023575,0.2062,0.19426
0,197.22,50,172,119,1.2302,2.3745,2.7867,2.1084,-317.37,158.69,0.0078136,0.27075,0.2664
1,88.889,25,147,94,1.0853,1.991,2.439,1.8929,-108.4,54.201,0.019959,0.20797,0.19788
0,180.56,64,184,119,1.6807,3.093,3.8102,2.8408,-433.94,216.97,0.0027012,0.46272,0.45892
1,127.78,39,159,91,1.1508,1.918,2.5569,1.9052,-113.64,56.821,0.027918,0.20648,0.19177
0,166.67,59,181,119,1.6363,3.0787,3.6717,2.7797,-418.17,209.08,0.0020585,0.40715,0.40425
1,83.333,24,145,92,1.0435,1.8988,2.3546,1.8032,-98.109,49.055,0.023886,0.20694,0.19449
0,205.56,53,175,119,1.3223,2.5224,3.0142,2.3488,-343.29,171.64,0.0015724,0.30598,0.30387
1,86.111,24,144,92,1.0213,1.8131,2.4479,1.7304,-108.8,54.398,0.028094,0.2155,0.20093
1,86.111,24,146,94,1.0048,1.8379,2.3028,1.6603,-102.35,51.173,0.02073,0.21725,0.20671
1,86.111,25,143,90,1.058,1.9383,2.385,1.7794,-106,52.999,0.016948,0.22471,0.21615
1,86.111,25,139,86,1.0769,1.999,2.3794,1.802,-105.75,52.875,0.015634,0.22194,0.21413
1,86.111,24,146,93,0.89284,1.5392,2.1677,1.4174,-90.32,45.16,0.022575,0.20036,0.18894
1,83.333,23,145,94,0.99916,1.7943,2.4001,1.682,-106.67,53.336,0.020753,0.21688,0.20669
1,83.333,23,145,93,0.97981,1.7671,2.2732,1.612,-94.718,47.359,0.021609,0.21188,0.20109
0,211.11,55,181,123,1.4172,2.6885,3.2176,2.4589,-366.45,183.22,0.0015366,0.31001,0.30784
1,86.111,23,140,88,0.89998,1.5701,2.1939,1.4474,-91.411,45.706,0.031168,0.19655,0.18017
0,175,62,183,121,1.6542,3.051,3.7774,2.8099,-430.2,215.1,0.0024135,0.4256,0.42219
1,86.111,24,146,94,0.95567,1.6921,2.3057,1.6685,-102.47,51.237,0.023561,0.19671,0.18439
0,172.22,61,181,119,1.6647,3.1186,3.725,2.7232,-424.23,212.12,0.0027561,0.53124,0.52735
1,83.333,24,146,93,1.0675,1.9222,2.4409,1.8621,-101.7,50.852,0.030885,0.199,0.182
0,200,51,173,119,1.2275,2.371,2.7468,2.1602,-312.83,156.42,0.0034319,0.26258,0.26008
1,88.889,25,144,91,1.0581,1.8761,2.4953,1.756,-110.9,55.451,0.019674,0.22131,0.21154
1,88.889,25,147,94,1.0753,1.9462,2.4642,1.7713,-109.52,54.76,0.018431,0.2209,0.21157
1,86.111,25,145,92,1.021,1.8795,2.2882,1.7117,-101.7,50.848,0.016186,0.21364,0.20553
1,88.889,25,144,92,0.91461,1.6415,2.1894,1.568,-103.39,51.695,0.017303,0.21153,0.2028
0,86.111,24,174,124,0.96372,1.7214,2.2944,1.6688,-101.97,50.987,0.027203,0.20852,0.17996
1,83.333,24,146,93,1.0589,1.9265,2.3889,1.7738,-99.536,49.768,0.030021,0.18835,0.17211
1,80.556,23,145,93,0.95695,1.7357,2.2038,1.4793,-91.826,45.913,0.025677,0.19771,0.18531
1,83.333,23,139,87,0.98266,1.735,2.3491,1.6025,-97.881,48.941,0.021038,0.20769,0.1973
1,88.889,25,146,93,0.99074,1.7549,2.345,1.595,-104.22,52.11,0.017866,0.21436,0.20525
0,200,51,173,119,1.3277,2.553,3.0083,2.3398,-342.61,171.31,0.0018876,0.2877,0.28551
1,147.22,46,172,94,1.0136,1.748,2.1705,1.6421,-96.468,48.234,0.024689,0.19442,0.1816
0,161.11,57,177,119,1.5008,2.7908,3.4997,2.5049,-398.57,199.29,0.002509,0.52221,0.51867
1,86.111,24,146,94,1.0984,1.9899,2.5452,1.8852,-113.12,56.561,0.032277,0.19455,0.17621
1,83.333,24,143,91,1.0255,1.8877,2.3246,1.6945,-103.31,51.657,0.015312,0.22757,0.21993
1,91.667,25,144,91,0.91093,1.6091,2.1694,1.5353,-96.419,48.21,0.015878,0.21508,0.20725
1,86.111,24,140,88,1.0119,1.8038,2.4118,1.7203,-107.19,53.595,0.022053,0.22495,0.21423
1,88.889,25,144,92,1.0153,1.854,2.354,1.6884,-111.16,55.58,0.017667,0.22215,0.2133
1,86.111,25,146,93,1.0359,1.9065,2.3211,1.709,-103.16,51.581,0.015381,0.22372,0.216
1,88.889,25,145,92,1.0152,1.8733,2.2678,1.7085,-100.79,50.396,0.016139,0.22163,0.21371
1,91.667,26,141,88,0.99402,1.7807,2.3402,1.681,-110.51,55.256,0.018426,0.22,0.21099
1,83.333,23,144,92,1.0502,1.896,2.4257,1.7312,-101.07,50.536,0.018899,0.21631,0.20688
1,191.67,48,170,118,0.96249,1.8542,2.238,1.6738,-248.67,124.33,0.015262,0.22451,0.21698
1,88.889,25,147,94,0.93156,1.6869,2.1436,1.5451,-95.273,47.636,0.018613,0.21805,0.20886
1,127.78,38,159,94,1.1443,1.8962,2.5621,1.8316,-113.87,56.936,0.023357,0.21035,0.19846
1,83.333,23,143,91,0.95688,1.7069,2.2573,1.5328,-94.054,47.027,0.021584,0.20751,0.19675
1,86.111,25,145,93,0.96287,1.7612,2.2311,1.62,-105.36,52.678,0.015774,0.22401,0.2162
1,86.111,24,146,94,0.89103,1.5875,2.1353,1.4492,-94.903,47.451,0.023279,0.1997,0.18791
0,172.22,61,172,119,1.6956,3.1786,3.788,2.7825,-431.41,215.7,0.0029825,0.52584,0.52163
1,83.333,23,141,89,1.1211,2.0473,2.5382,2.0212,-105.76,52.88,0.037766,0.18811,0.16586
0,222.22,79,189,110,1.478,2.6189,3.3113,2.3445,-377.12,188.56,0.0026494,0.50027,0.49653
1,86.111,24,143,90,0.96822,1.6905,2.3095,1.5983,-96.23,48.115,0.029697,0.18489,0.16895
1,86.111,24,142,90,1.063,1.8866,2.5445,1.782,-113.09,56.545,0.022781,0.21586,0.20437
1,86.111,25,147,94,1.11,2.019,2.5228,1.8554,-112.13,56.063,0.021703,0.2184,0.20722
1,88.889,26,148,95,1.0701,1.9869,2.3815,1.8114,-112.46,56.23,0.010671,0.23481,0.22926
1,88.889,24,142,89,0.99549,1.7446,2.3616,1.6088,-98.401,49.2,0.017027,0.21293,0.20455
1,86.111,24,144,91,1.133,2.0065,2.6401,1.8986,-110.01,55.003,0.023074,0.21767,0.20604
1,86.111,25,147,94,0.88222,1.5614,2.0974,1.3908,-93.219,46.609,0.019235,0.20749,0.19782
1,97.222,28,151,93,0.88806,1.546,2.0271,1.3872,-84.461,42.23,0.022529,0.18941,0.17796
0,169.44,60,180,119,1.5951,2.967,3.6359,2.5913,-414.08,207.04,0.0026826,0.52318,0.5194
1,83.333,23,143,91,0.98561,1.722,2.3902,1.616,-99.59,49.795,0.032871,0.19965,0.1822
1,88.889,25,147,94,0.96325,1.7428,2.217,1.5107,-98.535,49.267,0.014221,0.22262,0.21534
1,86.111,24,142,89,0.98483,1.7874,2.2347,1.6389,-93.113,46.556,0.024399,0.19167,0.17905
0,200,71,191,119,1.5627,2.8177,3.5312,2.4138,-402.17,201.08,0.0029884,0.49212,0.4879
1,83.333,23,143,91,1.06,1.8891,2.4932,1.8464,-103.88,51.942,0.028272,0.20788,0.1933
0,197.22,50,176,123,1.2523,2.3993,2.9137,2.1171,-331.84,165.92,0.0014276,0.28381,0.2818
1,86.111,24,146,94,0.86649,1.5013,2.1632,1.446,-96.142,48.071,0.019539,0.20663,0.19693
0,194.44,49,168,116,1.0478,2.0117,2.4725,1.849,-281.59,140.79,0.010563,0.23376,0.22828
1,88.889,26,146,93,1.0436,1.9343,2.3313,1.7893,-110.09,55.044,0.020224,0.21253,0.20214
0,194.44,49,171,119,1.1331,2.2083,2.5017,2.0313,-284.92,142.46,0.012701,0.23785,0.2317
1,91.667,25,144,91,1.0297,1.8213,2.4389,1.7333,-108.4,54.198,0.021363,0.2091,0.19844
0,200,51,173,119,1.3992,2.6983,3.1315,2.448,-356.64,178.32,0.0077513,0.29095,0.28626
1,80.556,22,143,92,0.90255,1.6343,2.1233,1.4935,-88.473,44.236,0.025616,0.1981,0.18498
0,202.78,52,174,118,1.3812,2.6629,3.0413,2.4697,-337.93,168.96,0.002421,0.29701,0.29467
1,88.889,25,146,94,1.0024,1.8024,2.3844,1.7553,-112.6,56.298,0.023729,0.21165,0.19967
0,197.22,50,174,120,1.3972,2.6923,3.1255,2.4132,-347.27,173.64,0.0050932,0.2898,0.28651
1,88.889,26,145,92,1.0419,1.9248,2.3397,1.8018,-110.48,55.242,0.020547,0.21732,0.20685
0,202.78,52,178,123,1.3189,2.5305,2.9823,2.3795,-339.65,169.83,0.0021681,0.2924,0.29004
1,88.889,25,146,94,1.0563,1.9037,2.4976,1.8459,-117.94,58.97,0.028334,0.2148,0.19996
0,86.111,25,145,92,1.1389,2.1081,2.5213,1.9146,-112.06,56.029,0.01978,0.2269,0.21701
1,86.111,25,145,92,1.1293,2.1003,2.4836,1.9275,-110.38,55.191,0.018997,0.23477,0.22534
0,83.333,24,146,94,0.88003,1.6315,1.9833,1.4941,-88.148,44.074,0.020751,0.20142,0.19119
1,88.889,25,147,94,1.0977,1.9621,2.5573,1.8957,-113.66,56.828,0.026409,0.21869,0.20512
1,88.889,26,145,92,1.0956,2.0155,2.471,1.8692,-116.69,58.343,0.022113,0.23057,0.21929
1,86.111,24,144,92,0.97903,1.7916,2.2443,1.6576,-99.747,49.873,0.022442,0.22068,0.20946
0,183.33,45,172,119,1.1256,2.1681,2.5336,2.0567,-253.36,126.68,0.011225,0.2278,0.22234
1,86.111,24,146,94,1.0073,1.7958,2.4006,1.722,-106.7,53.348,0.029633,0.21704,0.20171
0,202.78,52,175,120,1.4609,2.8223,3.2198,2.5966,-366.7,183.35,0.0090869,0.30832,0.3027
1,83.333,24,141,89,1.0001,1.8219,2.3069,1.734,-102.53,51.264,0.025837,0.21189,0.19856
0,216.67,57,180,121,1.512,2.8804,3.3511,2.6754,-381.65,190.83,0.0021165,0.3297,0.32708
1,88.889,24,143,91,0.96394,1.7125,2.3134,1.6451,-102.82,51.408,0.029152,0.21416,0.19926
0,202.78,52,183,128,1.4792,2.8902,3.1409,2.5953,-357.71,178.85,0.014168,0.28811,0.27905
1,83.333,25,147,95,1.0103,1.8893,2.2494,1.8823,-106.22,53.111,0.03128,0.2062,0.17514
0,186.11,46,170,116,1.2227,2.3568,2.712,2.2604,-271.2,135.6,0.025777,0.21592,0.20079
1,88.889,25,144,91,1.0826,1.9349,2.5237,1.8087,-112.16,56.082,0.022585,0.22316,0.21195
1,86.111,24,143,91,0.9891,1.7954,2.2955,1.6324,-102.02,51.012,0.02685,0.20892,0.1951
1,83.333,24,140,88,1.0085,1.8496,2.3012,1.674,-102.28,51.138,0.022971,0.21561,0.20371
0,86.111,26,144,91,1.0948,2.1042,2.3009,1.8816,-108.66,54.328,0.021264,0.22435,0.21379
1,88.889,25,147,95,0.93013,1.6605,2.2442,1.5615,-105.98,52.988,0.022475,0.2143,0.20297
0,205.56,53,182,126,1.3979,2.6835,3.1244,2.4744,-355.83,177.92,0.0050224,0.29859,0.29478
1,86.111,25,143,90,1.0862,1.9786,2.4656,1.8496,-109.58,54.792,0.023105,0.21057,0.19808
0,211.11,55,179,121,1.4337,2.709,3.2856,2.4651,-374.19,187.1,0.0015995,0.32863,0.32638
1,88.889,25,146,94,0.93013,1.6507,2.2648,1.6021,-106.95,53.475,0.020731,0.20967,0.19914
0,163.89,58,186,125,1.5803,2.989,3.5322,2.7709,-402.28,201.14,0.00196,0.35813,0.35537
1,86.111,25,146,94,0.98716,1.8133,2.269,1.7235,-107.15,53.573,0.022904,0.20964,0.19776
0,194.44,49,173,121,1.1475,2.2174,2.6258,2.015,-299.05,149.52,0.0063206,0.26233,0.25876
1,94.444,26,145,91,1.1388,2.0218,2.6383,1.9489,-117.26,58.628,0.023789,0.21792,0.20573
0,166.67,59,190,128,1.5971,3.0115,3.5709,2.8399,-406.68,203.34,0.0022281,0.36406,0.36092
1,86.111,25,141,88,1.1485,2.1155,2.5601,2.0126,-113.78,56.892,0.023756,0.22511,0.21293
0,197.22,50,173,120,1.2452,2.4043,2.8147,2.1571,-320.57,160.28,0.011682,0.25211,0.24607
1,88.889,25,147,94,1.0384,1.8691,2.4013,1.7867,-106.72,53.362,0.02258,0.21232,0.20086
0,205.56,53,180,124,1.4446,2.7716,3.2301,2.6067,-367.87,183.94,0.0054369,0.2967,0.29282
1,83.333,23,145,93,1.0147,1.8344,2.3424,1.6579,-97.602,48.801,0.030713,0.20012,0.18395
0,194.44,49,171,119,1.1306,2.1821,2.6018,1.9783,-296.31,148.16,0.011307,0.25338,0.24759
1,86.111,25,147,94,1.0409,1.9341,2.2995,1.7937,-102.2,51.099,0.022908,0.21605,0.20455
0,172.22,61,183,119,1.676,3.1212,3.7871,2.8977,-431.31,215.66,0.0024675,0.41918,0.41569
1,86.111,24,139,87,0.99785,1.7656,2.4058,1.719,-106.93,53.463,0.032766,0.21099,0.19376
1,86.111,25,146,93,1.1742,2.165,2.6106,1.975,-116.03,58.014,0.015301,0.2348,0.22716
1,80.556,24,144,92,0.9806,1.8474,2.143,1.6196,-95.246,47.623,0.022221,0.20453,0.19299
1,86.111,25,144,91,1.1426,2.1441,2.4776,1.9766,-110.12,55.059,0.016519,0.23399,0.22591
1,86.111,24,143,91,0.99475,1.7706,2.3778,1.6504,-105.68,52.839,0.022242,0.21294,0.20208
1,88.889,25,143,90,1.1307,2.0299,2.615,1.9008,-116.22,58.112,0.029045,0.21216,0.19667
1,88.889,25,147,94,1.1319,2.0722,2.5467,1.9251,-113.19,56.594,0.021206,0.22424,0.21348
1,88.889,25,138,85,0.96425,1.7441,2.2201,1.6143,-98.671,49.336,0.020623,0.20806,0.19755
0,86.111,21,143,93,1.1122,1.9801,2.7174,1.5162,-113.22,56.612,0.063076,0.19854,0.16025
1,83.333,24,145,93,1.0853,1.9732,2.5019,1.7644,-111.19,55.597,0.026711,0.21274,0.19879
1,83.333,23,145,93,0.92618,1.6602,2.1724,1.4789,-90.515,45.257,0.027862,0.19697,0.18234
0,175,62,182,119,1.6561,3.0622,3.7665,2.8459,-428.97,214.48,0.0025377,0.42727,0.42369
1,88.889,25,147,94,1.1469,2.0381,2.688,1.948,-119.47,59.733,0.035394,0.20753,0.18577
0,180.56,64,175,114,1.6837,3.022,3.9531,2.7869,-450.21,225.11,0.0028375,0.47276,0.46876
1,147.22,46,166,92,1.1164,1.9176,2.3935,1.8881,-106.38,53.19,0.031665,0.19461,0.17615
0,155.56,55,173,117,1.4163,2.616,3.4202,2.4341,-389.52,194.76,0.0025179,0.54322,0.53967
1,86.111,24,146,94,1.0007,1.8086,2.337,1.6874,-103.87,51.933,0.034724,0.18416,0.16353
0,130.56,40,158,89,1.0214,1.6716,2.2587,1.5513,-94.112,47.056,0.015967,0.20283,0.19481
1,91.667,26,148,94,1.1281,2.0009,2.6176,1.8853,-116.34,58.168,0.024081,0.21759,0.20512
1,86.111,24,146,94,0.89288,1.6013,2.1187,1.3801,-94.163,47.081,0.025736,0.19901,0.18535
1,91.667,25,143,90,0.93712,1.6178,2.2969,1.5081,-102.08,51.042,0.020954,0.20976,0.19908
1,88.889,24,145,93,1.0074,1.7884,2.4163,1.6171,-107.39,53.696,0.025089,0.2092,0.19601
1,86.111,25,147,94,0.90895,1.6316,2.1187,1.4681,-94.165,47.083,0.018215,0.21552,0.20641
1,88.889,25,147,94,0.96374,1.7124,2.2737,1.6041,-101.05,50.527,0.018178,0.21632,0.20725
1,83.333,23,144,92,1.0272,1.8424,2.3975,1.6642,-99.896,49.948,0.020515,0.21386,0.20378
1,83.333,24,144,92,0.88125,1.609,2.0351,1.4192,-90.451,45.225,0.022567,0.20234,0.19085
1,152.78,48,174,94,1.0336,1.7088,2.2413,1.664,-99.615,49.808,0.01888,0.19949,0.19023
0,191.67,68,188,119,1.6271,2.9787,3.6523,2.5849,-415.96,207.98,0.003026,0.48453,0.48026
1,83.333,24,142,90,1.0836,1.9935,2.4519,1.9697,-108.97,54.486,0.023301,0.21898,0.20727
1,88.889,26,146,93,1.0041,1.8659,2.2371,1.6482,-105.64,52.821,0.014576,0.23276,0.22551
1,83.333,23,145,93,0.9826,1.7742,2.2755,1.6841,-94.814,47.407,0.023487,0.20612,0.19456
1,91.667,26,146,92,1.1045,1.9699,2.5471,1.8978,-113.2,56.602,0.023142,0.21529,0.20348
1,86.111,25,147,94,1.1077,2.0481,2.4589,1.8832,-109.28,54.642,0.019896,0.21981,0.20975
1,83.333,24,146,94,0.92845,1.7178,2.0953,1.5193,-93.127,46.563,0.021207,0.21232,0.2015
1,86.111,24,145,93,0.99512,1.7689,2.3832,1.6963,-105.92,52.961,0.01956,0.2141,0.20442
1,86.111,25,146,93,1.0699,1.927,2.4691,1.7675,-109.74,54.87,0.02279,0.20844,0.19664
1,88.889,25,147,94,1.0136,1.8673,2.27,1.6677,-100.89,50.445,0.02287,0.20594,0.1939
0,219.44,58,182,121,1.5067,2.825,3.4306,2.6386,-390.71,195.35,0.0018424,0.34933,0.34673
1,88.889,24,146,94,0.94621,1.6914,2.2517,1.6472,-100.08,50.038,0.030485,0.18876,0.17241
0,155.56,55,175,119,1.4554,2.6933,3.4977,2.5318,-398.35,199.17,0.0026238,0.52769,0.52399
1,83.333,24,145,93,1.0394,1.8946,2.3915,1.814,-106.29,53.146,0.040647,0.18423,0.15828
0,225,80,190,111,1.4002,2.4487,3.1637,2.2674,-360.31,180.15,0.0027165,0.49524,0.49141
1,152.78,48,174,94,1.2367,2.1426,2.6296,2.0968,-116.87,58.436,0.039147,0.18972,0.16369
0,169.44,60,180,119,1.5824,2.8854,3.7321,2.6487,-425.04,212.52,0.0026279,0.52971,0.52601
1,83.333,23,145,93,1.055,1.8786,2.4852,1.7623,-103.55,51.774,0.037733,0.19166,0.16973
1,80.556,23,142,90,0.9421,1.7049,2.1783,1.4411,-90.762,45.381,0.023275,0.20214,0.19015
1,86.111,24,146,94,1.0186,1.8702,2.3191,1.6984,-103.07,51.535,0.017132,0.21813,0.20932
1,86.111,24,145,93,0.90577,1.5907,2.2155,1.4645,-98.467,49.233,0.019784,0.21301,0.20318
1,83.333,23,145,93,1.0587,1.8873,2.4892,1.7234,-103.72,51.858,0.024056,0.2107,0.19831
1,86.111,25,146,93,1.1303,2.0915,2.5045,1.8773,-111.31,55.655,0.016553,0.22738,0.21887
1,80.556,23,140,88,1.1008,2.0314,2.4553,1.8756,-102.31,51.153,0.017095,0.22167,0.21308
1,88.889,25,147,94,1.0118,1.7875,2.4017,1.6562,-106.74,53.37,0.022029,0.20771,0.19636
1,86.111,24,145,92,1.0492,1.8465,2.4718,1.7237,-102.99,51.497,0.023123,0.21303,0.20136
0,197.22,50,172,119,1.2603,2.4288,2.8687,2.1461,-326.71,163.35,0.0073364,0.27201,0.26753
1,80.556,24,142,90,0.9066,1.6704,2.0616,1.5376,-91.625,45.813,0.024515,0.19757,0.18478
0,155.56,55,175,119,1.3471,2.5162,3.1761,2.283,-361.72,180.86,0.002572,0.47576,0.47214
1,91.667,25,147,94,1.1303,1.9931,2.6784,1.9726,-119.04,59.519,0.043365,0.18932,0.16105
0,194.44,69,182,115,1.6521,2.9823,3.7556,2.5913,-427.72,213.86,0.0031821,0.48617,0.48168
1,83.333,24,144,91,1.03,1.8773,2.3204,1.834,-96.683,48.341,0.030252,0.19764,0.18088
0,194.44,49,174,119,1.2458,2.3866,2.8074,2.1675,-296.34,148.17,0.0014768,0.26194,0.25999
0,116.67,36,183,121,1.0862,1.8791,2.3945,1.8703,-106.42,53.212,0.0067989,0.23777,0.23315
1,86.111,25,147,94,1.0486,1.9019,2.3985,1.7849,-106.6,53.299,0.030777,0.1895,0.17203
1,86.111,24,141,88,0.96839,1.7457,2.2183,1.5777,-92.431,46.216,0.021578,0.19172,0.18051
1,86.111,23,138,86,0.95037,1.6698,2.2903,1.5786,-95.429,47.715,0.028059,0.20093,0.18639
1,86.111,24,145,93,1.0685,1.9317,2.4869,1.7608,-110.53,55.264,0.023069,0.21755,0.20569
1,80.556,23,139,87,1.0391,1.9052,2.3466,1.7506,-97.776,48.888,0.018525,0.21429,0.2051
1,88.889,25,144,91,1.0692,1.9246,2.4697,1.8148,-109.77,54.883,0.020667,0.20933,0.19888
1,83.333,23,143,91,1.0193,1.8282,2.38,1.6681,-99.165,49.583,0.022488,0.20793,0.19678
1,86.111,25,144,91,1.0776,1.9939,2.3921,1.8098,-106.32,53.158,0.022568,0.21427,0.20244
0,247.22,68,189,120,1.6475,2.9175,3.8472,2.703,-438.15,219.08,0.0029757,0.49176,0.48756
1,86.111,23,144,92,1.0986,1.9503,2.594,1.9422,-108.08,54.042,0.038502,0.18355,0.1605
0,166.67,59,181,119,1.4955,2.7807,3.4369,2.5545,-391.42,195.71,0.0020426,0.43161,0.42873
1,86.111,25,147,94,1.1166,2.0444,2.5133,1.973,-111.7,55.851,0.033657,0.19877,0.17963
1,138.89,43,170,94,1.0038,1.6928,2.1882,1.5516,-97.252,48.626,0.014264,0.22018,0.21317
0,83.333,24,174,124,0.98708,1.7846,2.3051,1.7269,-102.45,51.224,0.017212,0.22274,0.20821
1,83.333,24,146,94,0.95979,1.7453,2.2239,1.6398,-98.842,49.421,0.035702,0.18921,0.16888
1,83.333,24,143,91,1.0559,1.9378,2.4019,1.6648,-106.75,53.376,0.027342,0.19905,0.18336
1,91.667,26,145,92,0.98088,1.7695,2.2871,1.6736,-108,54.002,0.02006,0.21453,0.20443
1,83.333,23,142,90,0.98171,1.7228,2.3667,1.613,-98.613,49.306,0.027207,0.21184,0.19811
1,86.111,25,147,95,0.99677,1.8298,2.2925,1.6832,-108.26,54.129,0.020882,0.21112,0.20038
1,83.333,24,143,90,1.057,1.9392,2.3579,1.7155,-98.245,49.122,0.017983,0.21895,0.20978
1,88.889,25,147,95,0.99351,1.7776,2.3829,1.6667,-112.52,56.262,0.023976,0.21714,0.2049
1,86.111,24,143,91,1.033,1.8401,2.4625,1.7071,-109.44,54.721,0.022927,0.22909,0.21775
0,86.111,25,175,124,1.0767,1.9697,2.4303,1.9293,-108.02,54.008,0.027744,0.19939,0.16943
1,83.333,23,145,93,1.0042,1.7689,2.4066,1.641,-100.27,50.137,0.036289,0.18992,0.16955
1,88.889,25,146,93,1.1775,2.1182,2.7111,1.9086,-120.49,60.246,0.024242,0.22037,0.2078
1,88.889,25,147,94,1.1346,2.0597,2.5839,1.9201,-114.84,57.419,0.0216,0.22757,0.21647
1,88.889,26,141,88,1.0639,1.9909,2.3393,1.7786,-110.47,55.234,0.016032,0.22144,0.21338
1,86.111,24,143,91,0.95223,1.6795,2.3107,1.5751,-102.7,51.349,0.019862,0.21175,0.20187
1,86.111,24,143,91,1.0972,1.9795,2.5586,1.8139,-113.71,56.857,0.023673,0.22522,0.21304
1,83.333,24,146,94,1.0397,1.9176,2.3475,1.7401,-104.33,52.167,0.017834,0.23385,0.22502
1,83.333,24,146,94,1.0172,1.9064,2.2394,1.6793,-99.53,49.765,0.01719,0.22272,0.21399
1,88.889,25,144,91,0.95343,1.6696,2.2936,1.5606,-101.94,50.97,0.019955,0.21333,0.2034
1,83.333,23,145,93,1.0657,1.8673,2.5656,1.7382,-106.9,53.45,0.026611,0.21284,0.19947
1,86.111,25,147,94,1.1458,2.1103,2.5543,1.9763,-113.52,56.762,0.017398,0.22542,0.21665
1,86.111,24,144,92,1.0324,1.9218,2.2972,1.7183,-102.1,51.048,0.018868,0.2154,0.20594
1,86.111,24,144,92,0.98411,1.7381,2.3803,1.6654,-105.79,52.895,0.021883,0.21536,0.20432
1,86.111,23,145,93,1.0327,1.827,2.4567,1.6178,-102.36,51.182,0.025009,0.21851,0.2057
1,86.111,25,145,92,1.1533,2.167,2.4948,1.9622,-110.88,55.44,0.020263,0.22605,0.21578
1,147.22,46,168,90,0.9675,1.6041,2.107,1.5603,-93.646,46.823,0.015568,0.2158,0.20846
1,88.889,24,144,92,1.054,1.8749,2.5157,1.7672,-111.81,55.904,0.028605,0.21872,0.20388
1,86.111,25,147,94,1.1505,2.1321,2.5416,1.8688,-112.96,56.48,0.019214,0.22774,0.21804
1,200,51,173,119,1.1928,2.3111,2.6439,2.124,-301.11,150.56,0.014119,0.23473,0.22755
1,197.22,50,173,120,1.0643,2.0514,2.4373,1.889,-277.58,138.79,0.014954,0.23309,0.22571
1,83.333,24,146,94,0.97925,1.8186,2.1921,1.6774,-97.425,48.712,0.018284,0.21754,0.2085
1,86.111,24,141,89,0.91938,1.6507,2.1756,1.5656,-96.694,48.347,0.021972,0.20974,0.19904
1,83.333,23,142,90,1.0628,1.8913,2.5045,1.8039,-104.36,52.178,0.03069,0.20756,0.19201
1,88.889,25,147,94,1.1078,2.0283,2.4945,1.8567,-110.87,55.434,0.025717,0.2235,0.20967
1,83.333,24,143,91,1.0669,2.0045,2.3337,1.8163,-103.72,51.86,0.020406,0.23058,0.22053
1,125,38,159,94,1.028,1.7531,2.2917,1.6634,-108.22,54.109,0.019038,0.2137,0.20417
1,86.111,23,145,93,1.1108,1.9628,2.6381,1.8739,-109.92,54.961,0.031207,0.20813,0.19171
1,86.111,25,145,92,1.058,1.9275,2.4038,1.7322,-106.84,53.419,0.020326,0.22711,0.21656
1,86.111,24,139,87,1.0275,1.9066,2.2984,1.7448,-102.15,51.075,0.020145,0.21752,0.20733
1,86.111,24,146,94,1.0662,1.9044,2.528,1.7412,-112.36,56.179,0.026924,0.21043,0.19654
1,83.333,24,143,91,0.92897,1.6404,2.2524,1.5323,-100.11,50.053,0.026799,0.21188,0.19837
1,86.111,25,145,92,1.1917,2.1832,2.6726,2.0061,-118.78,59.392,0.0244,0.2302,0.21755
1,88.889,26,146,92,1.1807,2.188,2.5851,2.0047,-114.89,57.446,0.018786,0.22776,0.21832
1,86.111,25,142,89,0.87693,1.5449,2.0979,1.4289,-93.238,46.619,0.021676,0.20406,0.19286
1,86.111,24,145,93,1.1281,2.0202,2.6569,1.9582,-118.09,59.043,0.02593,0.21913,0.20595
1,86.111,25,144,91,1.0705,1.9391,2.4508,1.7667,-108.92,54.462,0.017185,0.22883,0.22015
1,83.333,24,144,92,1.0101,1.8645,2.281,1.6936,-101.38,50.688,0.021717,0.21548,0.20458
1,88.889,25,140,87,0.96155,1.698,2.2874,1.5944,-101.66,50.831,0.019044,0.20763,0.19814
1,91.667,25,146,94,0.96457,1.7235,2.3209,1.6614,-109.6,54.8,0.028344,0.20649,0.19099
1,80.556,23,142,91,0.88576,1.604,2.1091,1.4214,-93.738,46.869,0.024721,0.20441,0.1919
1,86.111,25,147,95,0.96091,1.7609,2.2197,1.5989,-104.82,52.411,0.022899,0.21238,0.20059
1,86.111,24,144,91,1.0134,1.7907,2.3784,1.7247,-99.098,49.549,0.017153,0.20972,0.20129
1,136.11,42,162,92,1.1987,2.0053,2.6281,1.9382,-116.81,58.403,0.029561,0.21377,0.19778
1,88.889,25,145,93,0.96866,1.7448,2.3008,1.5959,-108.65,54.325,0.022197,0.21507,0.20385
1,83.333,24,143,91,0.97531,1.7841,2.2374,1.5913,-99.44,49.72,0.027793,0.20418,0.18962
1,88.889,25,142,89,0.97559,1.7434,2.2831,1.6392,-101.47,50.735,0.021131,0.21314,0.20244
1,88.889,25,143,90,1.0768,1.9236,2.5127,1.8499,-111.68,55.838,0.027396,0.21223,0.19811
1,86.111,25,147,94,1.1157,2.0407,2.5155,1.8892,-111.8,55.9,0.024062,0.21422,0.20181
1,86.111,25,147,94,0.97462,1.7876,2.1995,1.6206,-97.755,48.878,0.018918,0.20977,0.20026
1,88.889,25,144,92,1.0461,1.885,2.4758,1.8096,-116.91,58.457,0.022408,0.22367,0.2125
1,83.333,24,142,90,1.0757,1.9437,2.505,1.8159,-111.33,55.666,0.02271,0.22652,0.21531
1,86.111,25,143,90,0.96927,1.796,2.1556,1.6178,-95.802,47.901,0.017307,0.2171,0.20848
1,88.889,24,144,91,1.0704,1.9113,2.4737,1.8116,-103.07,51.536,0.021528,0.21241,0.20181
1,88.889,24,145,93,0.96424,1.6919,2.3562,1.5823,-104.72,52.359,0.029437,0.20355,0.18801
1,86.111,25,144,91,1.0209,1.8815,2.2841,1.7178,-101.52,50.759,0.018058,0.22026,0.21124
1,88.889,25,147,94,1.0909,2.0479,2.3688,1.889,-105.28,52.64,0.0192,0.21327,0.20381
1,88.889,25,143,90,1.0986,1.9708,2.5469,1.9006,-113.19,56.597,0.023671,0.21369,0.20175
1,88.889,24,143,91,1.0299,1.8467,2.431,1.7201,-108.05,54.023,0.02408,0.21021,0.1977
1,83.333,23,144,92,0.95783,1.7391,2.2025,1.5887,-91.769,45.884,0.024776,0.2092,0.19689
1,125,39,162,94,1.0194,1.789,2.204,1.6643,-97.957,48.979,0.021164,0.22022,0.20995
1,86.111,23,145,93,1.1093,1.9655,2.6248,1.899,-109.37,54.683,0.02305,0.21707,0.20572
1,83.333,23,143,91,1.126,2.0107,2.6335,1.913,-109.73,54.865,0.027163,0.21552,0.20163
1,88.889,25,146,94,1.0116,1.8701,2.2978,1.6799,-108.51,54.254,0.024858,0.21369,0.20086
1,88.889,25,147,94,1.0658,1.8998,2.4953,1.7839,-110.9,55.45,0.023324,0.20892,0.19695
1,88.889,24,146,94,0.96778,1.714,2.3329,1.6036,-103.68,51.842,0.024484,0.21262,0.20009
1,80.556,23,145,93,0.98995,1.7902,2.2869,1.6149,-95.288,47.644,0.026512,0.20629,0.19258
1,88.889,25,147,94,1.0976,1.9594,2.5615,1.8646,-113.85,56.923,0.022367,0.22391,0.21282
1,83.333,24,144,93,0.9708,1.7638,2.3145,1.6355,-109.3,54.648,0.023191,0.21274,0.20094
1,86.111,25,142,89,0.97215,1.778,2.2031,1.6086,-97.917,48.958,0.019723,0.21253,0.20244
1,88.889,25,142,89,0.94993,1.6799,2.2563,1.5582,-100.28,50.139,0.019818,0.20573,0.1958
1,88.889,25,143,90,1.0346,1.8411,2.4299,1.7322,-107.99,53.997,0.029967,0.20234,0.18642
1,86.111,24,145,93,0.95812,1.7321,2.2403,1.5404,-99.567,49.783,0.026653,0.20328,0.18918
1,83.333,24,146,94,0.96592,1.8022,2.1468,1.6179,-95.413,47.707,0.022419,0.19979,0.18816
1,86.111,23,145,93,0.89741,1.5504,2.2165,1.4156,-92.352,46.176,0.022568,0.20574,0.19466
1,83.333,23,142,91,0.88024,1.5714,2.148,1.4015,-95.465,47.733,0.027033,0.20462,0.19075
1,83.333,24,143,91,0.91679,1.6804,2.1013,1.4787,-93.393,46.696,0.02409,0.19963,0.18716
1,88.889,24,145,93,0.87008,1.5361,2.1148,1.4472,-93.993,46.996,0.019699,0.20163,0.19179
1,91.667,26,147,93,1.1529,2.0459,2.6712,1.9521,-118.72,59.36,0.027936,0.21197,0.19707
1,83.333,23,143,92,0.92552,1.6671,2.2199,1.5645,-98.66,49.33,0.025783,0.207,0.19402
1,88.889,25,142,89,1.0235,1.8673,2.3234,1.6802,-103.26,51.63,0.018344,0.22505,0.21574
1,88.889,25,147,94,0.98396,1.7509,2.3153,1.6262,-102.9,51.451,0.021929,0.20707,0.19599
1,88.889,25,147,94,1.1038,1.9812,2.5565,1.8542,-113.62,56.811,0.02323,0.22044,0.20855
1,86.111,25,145,92,0.96235,1.7741,2.1567,1.5841,-95.853,47.927,0.021155,0.20926,0.19854
1,191.67,48,171,118,1.0837,2.0912,2.4529,1.9179,-265.73,132.86,0.013672,0.22824,0.22141
1,91.667,26,147,93,0.95917,1.7124,2.2184,1.5968,-98.597,49.298,0.014586,0.20462,0.19747
1,86.111,24,145,92,1.0998,1.9462,2.5683,1.8212,-107.01,53.506,0.024659,0.21003,0.19731
1,83.333,24,146,94,0.95072,1.7559,2.1498,1.57,-95.546,47.773,0.019669,0.20776,0.19767
1,83.333,24,146,94,0.96685,1.8052,2.1462,1.6294,-95.388,47.694,0.016367,0.21072,0.20287
1,88.889,24,146,94,0.93762,1.6568,2.2704,1.585,-100.91,50.453,0.02274,0.21084,0.19943
1,83.333,23,142,90,1.0818,1.9487,2.5036,1.8136,-104.32,52.158,0.022792,0.21749,0.20624
1,83.333,24,142,90,1.0118,1.8781,2.2635,1.7187,-100.6,50.299,0.019395,0.2106,0.20088
1,88.889,25,146,93,1.0371,1.9018,2.3359,1.8015,-103.82,51.909,0.019909,0.21591,0.20608
1,88.889,25,145,92,1.096,1.9686,2.5365,1.8925,-112.73,56.367,0.027615,0.20469,0.19005
1,86.111,24,142,90,1.0352,1.8764,2.4028,1.7438,-106.79,53.396,0.023154,0.21299,0.20127
1,88.889,25,140,87,0.96674,1.7654,2.196,1.6331,-97.602,48.801,0.021908,0.21446,0.20337
1,86.111,25,147,94,0.92947,1.6718,2.1592,1.5468,-95.965,47.982,0.020857,0.20339,0.19315
1,88.889,24,143,90,1.0734,1.8993,2.5097,1.7834,-104.57,52.286,0.028443,0.20114,0.18636
1,83.333,24,144,92,0.94285,1.7244,2.1664,1.5611,-96.287,48.143,0.025874,0.20389,0.19054
1,86.111,24,138,86,0.93547,1.7038,2.1641,1.5685,-96.184,48.092,0.023198,0.20458,0.19306
1,86.111,23,144,92,1.0508,1.8802,2.4583,1.7789,-102.43,51.215,0.027696,0.20652,0.19256
1,80.556,23,142,90,1.0407,1.9011,2.3631,1.7766,-98.464,49.232,0.026966,0.20806,0.19446
1,88.889,24,146,93,1.044,1.8876,2.376,1.7336,-99.001,49.5,0.024391,0.21058,0.19823
1,83.333,23,143,91,1.0917,1.9638,2.5303,1.8822,-105.43,52.716,0.027516,0.20979,0.19603
1,88.889,25,143,90,1.0195,1.8403,2.3496,1.7107,-104.42,52.212,0.026331,0.21202,0.19853
1,86.111,24,146,93,0.88213,1.5775,2.0475,1.4441,-85.311,42.656,0.019996,0.21034,0.2006
1,88.889,25,146,93,1.0077,1.8138,2.3326,1.686,-103.67,51.836,0.02372,0.20713,0.19512
1,88.889,24,144,92,1.1353,2.0604,2.6187,2.0014,-116.39,58.193,0.032898,0.21785,0.19983
1,88.889,25,144,91,1.0816,1.9796,2.4393,1.8192,-108.41,54.206,0.029149,0.2093,0.19387
1,86.111,24,146,93,1.0003,1.8112,2.2759,1.6832,-94.827,47.414,0.023525,0.2078,0.19613
1,88.889,24,146,93,1.0943,1.9517,2.5308,1.8494,-105.45,52.724,0.032416,0.20537,0.18836
1,83.333,23,141,89,1.0116,1.8495,2.2969,1.7315,-95.706,47.853,0.028589,0.20604,0.19162
1,83.333,23,145,93,0.89984,1.6171,2.1051,1.4537,-87.711,43.856,0.026343,0.20439,0.1911
1,88.889,25,146,93,1.0299,1.8624,2.3669,1.7734,-105.19,52.597,0.025523,0.22169,0.20912
1,80.556,22,142,91,0.9185,1.6527,2.1815,1.5529,-90.896,45.448,0.027317,0.20675,0.19318
1,86.111,24,145,92,1.1475,2.103,2.5547,1.9637,-106.45,53.224,0.023491,0.22255,0.2107
1,88.889,25,143,91,1.0192,1.8586,2.3682,1.7775,-111.83,55.915,0.021489,0.21407,0.20332
1,86.111,24,145,93,1.0939,1.9973,2.5043,1.9073,-111.3,55.652,0.028281,0.21326,0.19857
1,80.556,23,143,91,1.098,2.0282,2.4452,1.8848,-101.88,50.942,0.027305,0.21731,0.20369
1,127.78,39,165,93,1.0823,1.8973,2.3218,1.7662,-96.741,48.37,0.020209,0.21224,0.20238
1,83.333,23,141,90,0.91204,1.652,2.1681,1.5367,-96.359,48.179,0.028924,0.20461,0.18986
1,83.333,24,144,91,1.128,2.0535,2.5363,1.9307,-105.68,52.839,0.02402,0.22192,0.20975
1,86.111,25,143,90,0.92838,1.7035,2.0969,1.5821,-93.197,46.599,0.012773,0.22639,0.22013
1,91.667,25,145,93,0.93789,1.6955,2.2175,1.607,-104.72,52.358,0.022962,0.20199,0.19024
1,86.111,24,146,93,1.0755,1.9218,2.483,1.7728,-103.46,51.729,0.026845,0.21117,0.19762
1,86.111,24,146,93,1.1069,2.0237,2.476,1.8944,-103.17,51.584,0.01937,0.23051,0.22099
1,113.89,34,153,91,0.97061,1.6532,2.1868,1.5399,-97.189,48.594,0.022915,0.21736,0.20628
1,83.333,23,145,93,1.0462,1.9074,2.3823,1.7495,-99.263,49.631,0.023634,0.22348,0.21197
1,86.111,25,146,93,1.134,2.1308,2.4549,1.9679,-109.1,54.552,0.014492,0.22746,0.22034
1,83.333,24,146,94,0.96135,1.7971,2.1304,1.6891,-94.683,47.341,0.014092,0.22779,0.22123
1,88.889,26,148,94,1.0571,1.9585,2.3246,1.854,-103.31,51.657,0.015314,0.22206,0.21462
1,88.889,24,143,91,0.87793,1.5671,2.099,1.4629,-93.289,46.644,0.020817,0.19923,0.18895
1,88.889,23,145,94,0.9095,1.6141,2.2379,1.538,-99.461,49.731,0.032592,0.19627,0.17874
1,86.111,25,147,94,1.0552,1.9457,2.3563,1.7808,-104.73,52.363,0.020186,0.22153,0.21144
1,91.667,25,147,94,1.0929,1.9721,2.5137,1.8585,-111.72,55.859,0.019653,0.21074,0.20088
1,86.111,24,144,92,0.96254,1.7213,2.2878,1.5672,-101.68,50.839,0.025536,0.21477,0.20193
1,86.111,24,146,93,0.95818,1.7122,2.2209,1.5308,-92.536,46.268,0.019566,0.21195,0.20204
1,88.889,25,146,93,0.93857,1.6626,2.2251,1.5416,-98.892,49.446,0.019626,0.20547,0.19562
1,86.111,25,143,90,1.0599,1.9141,2.4379,1.765,-108.35,54.176,0.026249,0.21679,0.20348
1,83.333,24,146,93,1.0754,1.9517,2.4326,1.8077,-101.36,50.68,0.017741,0.21898,0.21009
1,86.111,24,146,94,1.0424,1.8752,2.4474,1.736,-108.77,54.387,0.024114,0.21593,0.20393
1,83.333,24,145,92,1.0551,1.9028,2.4087,1.7551,-100.36,50.18,0.019396,0.21914,0.20957
1,83.333,24,142,90,1.0048,1.8841,2.2111,1.6877,-98.271,49.136,0.0159,0.21841,0.21052
1,88.889,25,141,88,1.0263,1.8879,2.3022,1.7558,-102.32,51.16,0.018045,0.20762,0.19861
1,86.111,23,142,90,1.0147,1.7755,2.4528,1.6682,-102.2,51.101,0.024661,0.2168,0.20469
1,86.111,25,147,95,0.94732,1.745,2.1705,1.6354,-102.5,51.248,0.012695,0.22443,0.21846
1,138.89,43,166,95,0.98895,1.6997,2.1537,1.6012,-101.7,50.85,0.022019,0.20102,0.18988
1,88.889,25,147,94,0.98854,1.721,2.3934,1.5862,-106.37,53.186,0.026063,0.20585,0.19242
1,88.889,24,143,90,1.0908,1.9355,2.5395,1.7974,-105.81,52.906,0.025375,0.21302,0.19996
1,86.111,25,147,94,1.0398,1.8656,2.4149,1.7528,-107.33,53.665,0.019302,0.216,0.20644
1,86.111,24,146,94,0.98571,1.7573,2.3514,1.6411,-104.51,52.254,0.024731,0.21296,0.2004
1,86.111,25,143,90,1.104,2.0188,2.4911,1.8776,-110.71,55.357,0.020355,0.217,0.20667
1,86.111,24,146,94,0.88355,1.559,2.1481,1.4335,-95.471,47.736,0.021598,0.19975,0.18869
1,86.111,24,146,94,0.98249,1.7466,2.3539,1.6238,-104.62,52.31,0.025987,0.21209,0.19888
1,88.889,25,145,92,1.0391,1.8818,2.3821,1.7291,-105.87,52.936,0.02187,0.21342,0.20222
1,83.333,24,146,94,0.98865,1.8088,2.2662,1.6705,-100.72,50.361,0.018623,0.22567,0.21665
1,86.111,24,143,91,0.95357,1.6891,2.2993,1.5765,-102.19,51.095,0.022311,0.21395,0.20277
1,86.111,23,142,90,0.95727,1.6855,2.2996,1.6,-95.817,47.909,0.018769,0.21663,0.20754
1,86.111,24,146,94,0.96386,1.7481,2.242,1.6336,-99.646,49.823,0.017995,0.22773,0.21878
1,91.667,25,145,92,1.0833,1.9362,2.5253,1.8383,-112.24,56.118,0.022,0.21691,0.20578
1,86.111,24,144,91,1.0723,1.9137,2.4797,1.7941,-103.32,51.661,0.021176,0.21452,0.20387
1,86.111,24,143,91,0.94341,1.7136,2.1912,1.5842,-97.387,48.693,0.020416,0.21891,0.20881
1,83.333,23,140,88,1.0097,1.8033,2.3728,1.7293,-98.866,49.433,0.026345,0.20696,0.19394
1,86.111,25,144,91,1.1704,2.1685,2.5843,2.0222,-114.86,57.429,0.019583,0.23736,0.22775
1,83.333,24,142,89,1.1715,2.1891,2.5359,2.0547,-105.66,52.832,0.014517,0.24341,0.23657
1,83.333,24,144,92,0.9708,1.8234,2.1333,1.6859,-94.812,47.406,0.01259,0.22945,0.22353
1,122.22,36,156,93,1.0798,1.8571,2.3893,1.7623,-106.19,53.095,0.017638,0.21474,0.20615
1,91.667,25,147,94,1.0578,1.8686,2.5072,1.7993,-111.43,55.715,0.028892,0.21233,0.19693
1,80.556,23,145,93,1.0301,1.8883,2.3281,1.7409,-97.005,48.502,0.019985,0.21973,0.2097
1,88.889,25,144,91,1.1279,2.0885,2.4969,1.9539,-110.97,55.487,0.017471,0.22095,0.21233
1,86.111,24,146,94,0.97189,1.728,2.329,1.5863,-103.51,51.756,0.025328,0.2092,0.19638
1,88.889,25,143,90,1.0723,1.9075,2.5167,1.7996,-111.85,55.927,0.027754,0.21097,0.19606
1,88.889,25,147,94,1.0941,1.9989,2.4728,1.8212,-109.9,54.951,0.018514,0.21937,0.20992
1,86.111,24,146,93,1.0613,1.8848,2.4704,1.7306,-102.93,51.467,0.026691,0.21298,0.19941
1,88.889,25,146,93,1.0593,1.8793,2.4961,1.7634,-110.94,55.469,0.027345,0.2103,0.19594
1,88.889,24,140,88,0.93851,1.6879,2.2135,1.504,-98.38,49.19,0.023512,0.20934,0.19741
1,88.889,25,147,94,1.0161,1.8158,2.3745,1.7191,-105.53,52.767,0.01948,0.21234,0.20248
1,86.111,24,140,88,0.9686,1.7166,2.3324,1.5897,-103.66,51.831,0.027375,0.21403,0.20011
